# Matter power spectrum P(k) at redshift z=0
# for k=1.04395e-05 to 0.627071 h/Mpc,
# number of wavenumbers equal to 560
#    1:k (h/Mpc)              2:P (Mpc/h)^3        
       1.043952841244e-05       5.486319632602e+01 
       2.332235016154e-05       1.110223907646e+02 
       3.625045815032e-05       1.689892412193e+02 
       4.925864659263e-05       2.283084137982e+02 
       6.238228508533e-05       2.870572129440e+02 
       7.565763408023e-05       3.456622149596e+02 
       8.912217044254e-05       4.051550881839e+02 
       1.028149274270e-04       4.651612897084e+02 
       1.167768534363e-04       5.259031631224e+02 
       1.310511939594e-04       5.876272487880e+02 
       1.456839010947e-04       6.507092694219e+02 
       1.607240750009e-04       7.152747716801e+02 
       1.762244414435e-04       7.815590215121e+02 
       1.922418692285e-04       8.498868414961e+02 
       2.088379306606e-04       9.203716928186e+02 
       2.260795070794e-04       9.933417493283e+02 
       2.440394398589e-04       1.069133210394e+03 
       2.627972247748e-04       1.148017546592e+03 
       2.824397440851e-04       1.230365083433e+03 
       3.030620256915e-04       1.316517982564e+03 
       3.247680119839e-04       1.406895486633e+03 
       3.476713120048e-04       1.501922218274e+03 
       3.718958990303e-04       1.602076917737e+03 
       3.975767012952e-04       1.707865289451e+03 
       4.248600164152e-04       1.819839009205e+03 
       4.539036606112e-04       1.938565747429e+03 
       4.848767434878e-04       2.064659693507e+03 
       5.179589404178e-04       2.198762014148e+03 
       5.533391216588e-04       2.341527882956e+03 
       5.912131960759e-04       2.493627895985e+03 
       6.317810451572e-04       2.655720427311e+03 
       6.752424678537e-04       2.828443727062e+03 
       7.217921350782e-04       3.012383378025e+03 
       7.716136661968e-04       3.208062659786e+03 
       8.248730817835e-04       3.415894275717e+03 
       8.817120390082e-04       3.636184923089e+03 
       9.422413883123e-04       3.869072259586e+03 
       1.006535665602e-03       4.114547694049e+03 
       1.074629119445e-03       4.372401588665e+03 
       1.146513750659e-03       4.642275115236e+03 
       1.222139622385e-03       4.923430898795e+03 
       1.301417421742e-03       5.215699115298e+03 
       1.384222978020e-03       5.517709885064e+03 
       1.470403226482e-03       5.828702573502e+03 
       1.559782991479e-03       6.147694012610e+03 
       1.652171958474e-03       6.473678001171e+03 
       1.747371293403e-03       6.805596582188e+03 
       1.845179513558e-03       7.142434638623e+03 
       1.945397377271e-03       7.483214068456e+03 
       2.047831708306e-03       7.827000417894e+03 
       2.152298186120e-03       8.172946492038e+03 
       2.258623209172e-03       8.520185499488e+03 
       2.366644978240e-03       8.868084563899e+03 
       2.476213958351e-03       9.215926791893e+03 
       2.587192870570e-03       9.563105290077e+03 
       2.699456346723e-03       9.909104772049e+03 
       2.812890357427e-03       1.025345822757e+04 
       2.927391500711e-03       1.059575358931e+04 
       3.042866217389e-03       1.093562963044e+04 
       3.159229981400e-03       1.127274133901e+04 
       3.276406498766e-03       1.160683840372e+04 
       3.394326937499e-03       1.193767822532e+04 
       3.512929202276e-03       1.226503857805e+04 
       3.632157261454e-03       1.258869589232e+04 
       3.751960529655e-03       1.290859468014e+04 
       3.872293306094e-03       1.322453270965e+04 
       3.993114266897e-03       1.353644094584e+04 
       4.114386008443e-03       1.384414706386e+04 
       4.236074638079e-03       1.414766572255e+04 
       4.358149408272e-03       1.444688734765e+04 
       4.480582390207e-03       1.474176309419e+04 
       4.603348182946e-03       1.503227968887e+04 
       4.726423654473e-03       1.531838183850e+04 
       4.849787711224e-03       1.560002267900e+04 
       4.973421092962e-03       1.587719763476e+04 
       5.097306190188e-03       1.614995452259e+04 
       5.221426881523e-03       1.641830217172e+04 
       5.345768388801e-03       1.668218853624e+04 
       5.470317147837e-03       1.694154700553e+04 
       5.595060693076e-03       1.719671798382e+04 
       5.719987554531e-03       1.744735857603e+04 
       5.845087165611e-03       1.769365432503e+04 
       5.970349780582e-03       1.793554003358e+04 
       6.095766400591e-03       1.817318494619e+04 
       6.221328707265e-03       1.840648522022e+04 
       6.347029003052e-03       1.863553705423e+04 
       6.472860157548e-03       1.886030694826e+04 
       6.598815559149e-03       1.908093049008e+04 
       6.724889071452e-03       1.929730641741e+04 
       6.851074993883e-03       1.950956823973e+04 
       6.977368026099e-03       1.971776268219e+04 
       7.103763235772e-03       1.992189730772e+04 
       7.230256029385e-03       2.012196862108e+04 
       7.356842125736e-03       2.031808935647e+04 
       7.483517531871e-03       2.050943260889e+04 
       7.610278521189e-03       2.069736313811e+04 
       7.737121613512e-03       2.088173582087e+04 
       7.864043556913e-03       2.106225352242e+04 
       7.991041311133e-03       2.123898793403e+04 
       8.118112032441e-03       2.141186765320e+04 
       8.245253059771e-03       2.158119425011e+04 
       8.372461902047e-03       2.174652155121e+04 
       8.499736226561e-03       2.190876424388e+04 
       8.627073848313e-03       2.206709782393e+04 
       8.754472720221e-03       2.222187950386e+04 
       8.881930924133e-03       2.237320623313e+04 
       9.009446662545e-03       2.252108745561e+04 
       9.137018250992e-03       2.266549279325e+04 
       9.264644111024e-03       2.280640591814e+04 
       9.392322763738e-03       2.294396485046e+04 
       9.520052823801e-03       2.307817872160e+04 
       9.647832993935e-03       2.320900917543e+04 
       9.775662059820e-03       2.333686384093e+04 
       9.903538885373e-03       2.346136733713e+04 
       1.003146240839e-02       2.358334123340e+04 
       1.015943163648e-02       2.370103934525e+04 
       1.028744564337e-02       2.381616109683e+04 
       1.041550356537e-02       2.392818216935e+04 
       1.054360459819e-02       2.403705899544e+04 
       1.067174799395e-02       2.414314633825e+04 
       1.079993305836e-02       2.424615967718e+04 
       1.092815914820e-02       2.434609713340e+04 
       1.105642566889e-02       2.444343950013e+04 
       1.118473207226e-02       2.381198812490e+04 
       1.131307785449e-02       2.462948008723e+04 
       1.144146255417e-02       2.471816731505e+04 
       1.156988575052e-02       2.480404859828e+04 
       1.169834706172e-02       2.488718818194e+04 
       1.182684614336e-02       2.496763858742e+04 
       1.195538268698e-02       2.504541887245e+04 
       1.208395641878e-02       2.512052491098e+04 
       1.221256709830e-02       2.519308974376e+04 
       1.234121451731e-02       2.526294628267e+04 
       1.246989849874e-02       2.533029620031e+04 
       1.259861889562e-02       2.539515022164e+04 
       1.272737559022e-02       2.545750923460e+04 
       1.285616849317e-02       2.551738434662e+04 
       1.298499754262e-02       2.557486558247e+04 
       1.311386270355e-02       2.562987990889e+04 
       1.324276396708e-02       2.568258428852e+04 
       1.337170134981e-02       2.573290892987e+04 
       1.350067489328e-02       2.578094635404e+04 
       1.362968466341e-02       2.582669508646e+04 
       1.375873075001e-02       2.587014791712e+04 
       1.388781326637e-02       2.591138778509e+04 
       1.401693234878e-02       2.595041854495e+04 
       1.414608815624e-02       2.598728497520e+04 
       1.427528087006e-02       2.602202348031e+04 
       1.440451069362e-02       2.605455787277e+04 
       1.453377785205e-02       2.608487949181e+04 
       1.466308259201e-02       2.611364017112e+04 
       1.479242518150e-02       2.613830318203e+04 
       1.492180590965e-02       2.616298214679e+04 
       1.505122508660e-02       2.618506841773e+04 
       1.518068304335e-02       2.620399352891e+04 
       1.531018013168e-02       2.622250384175e+04 
       1.543971672403e-02       2.623904315143e+04 
       1.556929321350e-02       2.625547000865e+04 
       1.569891001379e-02       2.626745950004e+04 
       1.582856755918e-02       2.628003882858e+04 
       1.595826630458e-02       2.628908794598e+04 
       1.608800672551e-02       2.629644678072e+04 
       1.621778931819e-02       2.630105052198e+04 
       1.634761459961e-02       2.630500468650e+04 
       1.647748310757e-02       2.630805554876e+04 
       1.660739540088e-02       2.630714468915e+04 
       1.673735205938e-02       2.630610127169e+04 
       1.686735368418e-02       2.630311202867e+04 
       1.699740089776e-02       2.629842590956e+04 
       1.712749434418e-02       2.629203252533e+04 
       1.725763468925e-02       2.628426425831e+04 
       1.738782262077e-02       2.627545992811e+04 
       1.751805884876e-02       2.626473696378e+04 
       1.764834410568e-02       2.625168747115e+04 
       1.777867914672e-02       2.623789429893e+04 
       1.790906475009e-02       2.622263994406e+04 
       1.803950171726e-02       2.620572064886e+04 
       1.816999087336e-02       2.618826847111e+04 
       1.830053306744e-02       2.616850863878e+04 
       1.843112917284e-02       2.614924342483e+04 
       1.856178008756e-02       2.612515381255e+04 
       1.869248673464e-02       2.610259721449e+04 
       1.882325006255e-02       2.607458480158e+04 
       1.895407104562e-02       2.604959791550e+04 
       1.908495068445e-02       2.602262041841e+04 
       1.921589000638e-02       2.599374273055e+04 
       1.934689006595e-02       2.596359691047e+04 
       1.947795194538e-02       2.593398073410e+04 
       1.960907675508e-02       2.590079112789e+04 
       1.974026563418e-02       2.586698350173e+04 
       1.987151975107e-02       2.583043685266e+04 
       2.000284030393e-02       2.579422470124e+04 
       2.013422852137e-02       2.575840783137e+04 
       2.026568566297e-02       2.571863660681e+04 
       2.039721301993e-02       2.567921747468e+04 
       2.052881191573e-02       2.563867909932e+04 
       2.066048370676e-02       2.559830002266e+04 
       2.079222978301e-02       2.555755148607e+04 
       2.092405156880e-02       2.551188716667e+04 
       2.105595052349e-02       2.546739587909e+04 
       2.118792814224e-02       2.542187751544e+04 
       2.131998595678e-02       2.537593237860e+04 
       2.145212553626e-02       2.533033677422e+04 
       2.158434848798e-02       2.528166910975e+04 
       2.171665645837e-02       2.523246193307e+04 
       2.184905113375e-02       2.518238619057e+04 
       2.198153424133e-02       2.513142113737e+04 
       2.211410755011e-02       2.507958975153e+04 
       2.224677287184e-02       2.502373860222e+04 
       2.237953206204e-02       2.497294140719e+04 
       2.251238702101e-02       2.491692656582e+04 
       2.264533969491e-02       2.486182226218e+04 
       2.277839207683e-02       2.480831768711e+04 
       2.291154620793e-02       2.475012115030e+04 
       2.304480417861e-02       2.469425132733e+04 
       2.317816812971e-02       2.463628169916e+04 
       2.331164025373e-02       2.457708733516e+04 
       2.344522279613e-02       2.451544065433e+04 
       2.357891805662e-02       2.445470668214e+04 
       2.371272839055e-02       2.439395761400e+04 
       2.384665621030e-02       2.433457673818e+04 
       2.398070398671e-02       2.427050668765e+04 
       2.411487425059e-02       2.420643153922e+04 
       2.424916959427e-02       2.414614666873e+04 
       2.438359267315e-02       2.408221256172e+04 
       2.451814620740e-02       2.401523743207e+04 
       2.465283298361e-02       2.395283112746e+04 
       2.478765585654e-02       2.388650147405e+04 
       2.492261775098e-02       2.381828861654e+04 
       2.505772166355e-02       2.375140318584e+04 
       2.519297066466e-02       2.368358589224e+04 
       2.532836790052e-02       2.361649946617e+04 
       2.546391659516e-02       2.355029537926e+04 
       2.559962005260e-02       2.348222158672e+04 
       2.573548165901e-02       2.341255753967e+04 
       2.587150488503e-02       2.334299895954e+04 
       2.600769328809e-02       2.327090749719e+04 
       2.614405051485e-02       2.320277445205e+04 
       2.628058030373e-02       2.312918473649e+04 
       2.641728648751e-02       2.305772288670e+04 
       2.655417299603e-02       2.298593038963e+04 
       2.669124385897e-02       2.291332025319e+04 
       2.682850320877e-02       2.284130257863e+04 
       2.696595528357e-02       2.276812265629e+04 
       2.710360443039e-02       2.269482565643e+04 
       2.724145510828e-02       2.262455301675e+04 
       2.737951189167e-02       2.255094164297e+04 
       2.751777947384e-02       2.247539230978e+04 
       2.765626267049e-02       2.240100773806e+04 
       2.779496642345e-02       2.232642178725e+04 
       2.793389580454e-02       2.225212748004e+04 
       2.807305601955e-02       2.217663460182e+04 
       2.821245241243e-02       2.210009638545e+04 
       2.835209046957e-02       2.202524664923e+04 
       2.849197582428e-02       2.194946323006e+04 
       2.863211426145e-02       2.187112411025e+04 
       2.877251172237e-02       2.179462324969e+04 
       2.891317430977e-02       2.171785896005e+04 
       2.905410829302e-02       2.164421805927e+04 
       2.919532011359e-02       2.156542473635e+04 
       2.933681639067e-02       2.148825737783e+04 
       2.947860392710e-02       2.141083745173e+04 
       2.962068971543e-02       2.133360212269e+04 
       2.976308094436e-02       2.125736732937e+04 
       2.990578500533e-02       2.117858753574e+04 
       3.004880949950e-02       2.110064288024e+04 
       3.019216224493e-02       2.102110908312e+04 
       3.033585128409e-02       2.094220568848e+04 
       3.047988489179e-02       2.086369721832e+04 
       3.062427158328e-02       2.078824459412e+04 
       3.076902012286e-02       2.070969084481e+04 
       3.091413953282e-02       2.062913847954e+04 
       3.105963910275e-02       2.055148706683e+04 
       3.120552839930e-02       2.047235303015e+04 
       3.135181727639e-02       2.039282571401e+04 
       3.149851588586e-02       2.031487837144e+04 
       3.164563468868e-02       2.023540622198e+04 
       3.179318446658e-02       2.015461236679e+04 
       3.194117633433e-02       2.007492647286e+04 
       3.208962175255e-02       1.999559151110e+04 
       3.223853254115e-02       1.991622639833e+04 
       3.238792089345e-02       1.983687190571e+04 
       3.253779939093e-02       1.976012030991e+04 
       3.268818101878e-02       1.968034886338e+04 
       3.283907918222e-02       1.960092793491e+04 
       3.299050772357e-02       1.952204881671e+04 
       3.314248094030e-02       1.944226962164e+04 
       3.329501360397e-02       1.936058768121e+04 
       3.344812098009e-02       1.928105588860e+04 
       3.360181884914e-02       1.920154646879e+04 
       3.375612352868e-02       1.912268646018e+04 
       3.391105189654e-02       1.904462316502e+04 
       3.406662141546e-02       1.896527765349e+04 
       3.422285015893e-02       1.888448540589e+04 
       3.437975683855e-02       1.880670481634e+04 
       3.453736083287e-02       1.872553906794e+04 
       3.469568221794e-02       1.864565145689e+04 
       3.485474179958e-02       1.856638864244e+04 
       3.501456114750e-02       1.848702011682e+04 
       3.517516263146e-02       1.840847027602e+04 
       3.533656945960e-02       1.832830607732e+04 
       3.549880571903e-02       1.824896962420e+04 
       3.566189641893e-02       1.817232886211e+04 
       3.582586753631e-02       1.809158242878e+04 
       3.599074606457e-02       1.801247069452e+04 
       3.615656006521e-02       1.793334821205e+04 
       3.632333872279e-02       1.785581350226e+04 
       3.649111240346e-02       1.777672918771e+04 
       3.665991271737e-02       1.769754217681e+04 
       3.682977258515e-02       1.761843108191e+04 
       3.700072630894e-02       1.753969689350e+04 
       3.717280964822e-02       1.745887212608e+04 
       3.734605990085e-02       1.738238197929e+04 
       3.752051598992e-02       1.730366166632e+04 
       3.769621855657e-02       1.722493433269e+04 
       3.787321005966e-02       1.714466087079e+04 
       3.805153488258e-02       1.706600181001e+04 
       3.823123944810e-02       1.698786876578e+04 
       3.841237234172e-02       1.690920351115e+04 
       3.859498444449e-02       1.683051780861e+04 
       3.877912907604e-02       1.675275033758e+04 
       3.896486214892e-02       1.667441581924e+04 
       3.915224233512e-02       1.659403061677e+04 
       3.934133124612e-02       1.651551959107e+04 
       3.953219362777e-02       1.643943889057e+04 
       3.972489757129e-02       1.635935658794e+04 
       3.991951474230e-02       1.628089903598e+04 
       4.011612062952e-02       1.620356194780e+04 
       4.031479481521e-02       1.612446575361e+04 
       4.051562126977e-02       1.604584959534e+04 
       4.071868867299e-02       1.596847496660e+04 
       4.092409076482e-02       1.588795214209e+04 
       4.113192672916e-02       1.580943207177e+04 
       4.134230161420e-02       1.573084123208e+04 
       4.155532679355e-02       1.565216935037e+04 
       4.177112047308e-02       1.557393029111e+04 
       4.198980824886e-02       1.549641038734e+04 
       4.221152372232e-02       1.541807247037e+04 
       4.243640917991e-02       1.533829846398e+04 
       4.266461634533e-02       1.526000223233e+04 
       4.289630721370e-02       1.518122880105e+04 
       4.313165497840e-02       9.357211657979e+02 
       4.337084506319e-02       1.502215989723e+04 
       4.361407627378e-02       1.494192912148e+04 
       4.386156208585e-02       1.486290312017e+04 
       4.411353208881e-02       1.478211348240e+04 
       4.437023360806e-02       1.470320268142e+04 
       4.463193353259e-02       1.462172075547e+04 
       4.489892037894e-02       1.454074448965e+04 
       4.517150662877e-02       1.445993502130e+04 
       4.545003138340e-02       1.438052064587e+04 
       4.573486338746e-02       1.429811404677e+04 
       4.602640448326e-02       1.421738032277e+04 
       4.632509356983e-02       1.413535792168e+04 
       4.663141115538e-02       1.405183979939e+04 
       4.694588461008e-02       1.396872615577e+04 
       4.726909424858e-02       1.388608814558e+04 
       4.760168039962e-02       1.380205563049e+04 
       4.794435165459e-02       1.371603036452e+04 
       4.829789453039e-02       1.363214378531e+04 
       4.866318483631e-02       1.354477791087e+04 
       4.904120110296e-02       1.345802620926e+04 
       4.943304051814e-02       1.337037272424e+04 
       4.983993792411e-02       1.328376893034e+04 
       5.026328857068e-02       1.319326989367e+04 
       5.070467549632e-02       1.310265352067e+04 
       5.116590263644e-02       1.301075872687e+04 
       5.164903504710e-02       1.291817375410e+04 
       5.215644799837e-02       1.282294673911e+04 
       5.269088715194e-02       1.272517387717e+04 
       5.325554260714e-02       1.262612070895e+04 
       5.385414028420e-02       1.252679769545e+04 
       5.449105489630e-02       1.242206983095e+04 
       5.517144956783e-02       1.231529366167e+04 
       5.590144778982e-02       1.220461027148e+04 
       5.668834342348e-02       1.209062594534e+04 
       5.754085294213e-02       1.196894587612e+04 
       5.846940920921e-02       1.184185908452e+04 
       5.948648438240e-02       1.170730925545e+04 
       6.060690498286e-02       1.156404293580e+04 
       6.184807535653e-02       1.140666645712e+04 
