# dimensionless total lensed [l(l+1)/2pi] C_l's
# for l=2 to 2500, i.e. number of multipoles equal to 2499
#
# -> if you prefer output in CAMB/HealPix/LensPix units/order, set 'format' to 'camb' in input file
# -> if you don't want to see such a header, set 'headers' to 'no' in input file
# -> for CMB lensing (phi), these are C_l^phi-phi for the lensing potential.
#    Remember the conversion factors:
#    C_l^dd (deflection) = l(l+1) C_l^phi-phi
#    C_l^gg (shear/convergence) = 1/4 (l(l+1))^2 C_l^phi-phi
#
# 1:l     2:TT                     3:EE                     4:TE                     5:BB                     6:phiphi                 7:TPhi                   8:Ephi               
    2       1.495442802286e-10       7.309279995296e-15       4.815171147864e-13       2.538223551623e-19       8.603320161667e-09       4.849502476276e-10      -2.515798305510e-12 
    3       1.409375751541e-10       1.238842439418e-14       6.068719460190e-13       5.078773592855e-19       5.391846754010e-09       3.465160905919e-10      -2.211468924253e-12 
    4       1.324639073772e-10       1.446597333189e-14       6.277975856316e-13       8.469710624264e-19       3.761740360261e-09       2.636064683310e-10      -1.764096536570e-12 
    5       1.257529127994e-10       1.337980659517e-14       5.879550138552e-13       1.271391155452e-18       2.810397505396e-09       2.090630659320e-10      -1.309522410855e-12 
    6       1.208087872090e-10       1.032488897197e-14       5.173987886582e-13       1.781478631472e-18       2.196043575386e-09       1.706669525372e-10      -8.948478072780e-13 
    7       1.173342627919e-10       6.843978014930e-15       4.365330641161e-13       2.377616470886e-18       1.770939825641e-09       1.423251670251e-10      -5.443912783059e-13 
    8       1.150094684178e-10       4.045434430152e-15       3.576614965994e-13       3.060217103688e-18       1.462527082304e-09       1.206730388787e-10      -2.689406561096e-13 
    9       1.135900586290e-10       2.340187031242e-15       2.880577323669e-13       3.829709144935e-18       1.231155206700e-09       1.036922841009e-10      -7.010757392137e-14 
   10       1.128613797232e-10       1.576340273313e-15       2.317780280702e-13       4.686523926572e-18       1.052826134483e-09       9.012420104609e-11       5.744859075600e-14 
   11       1.126831701132e-10       1.351537339983e-15       1.905546675142e-13       5.631082354798e-18       8.850996213991e-10       7.935087741336e-11       1.233241518388e-13 
   12       1.129467943608e-10       1.294976741195e-15       1.640598910183e-13       6.663782606682e-18       7.733642046490e-10       7.014285093713e-11       1.421542110742e-13 
   13       1.135322126220e-10       1.208460572157e-15       1.505250141372e-13       7.784989143343e-18       6.816494009318e-10       6.261754926850e-11       1.277268304705e-13 
   14       1.143409438551e-10       1.063786921094e-15       1.473981273858e-13       8.995023461278e-18       6.053446376036e-10       5.609121122119e-11       9.279011281058e-14 
   15       1.153793890633e-10       9.208353645923e-16       1.516646660270e-13       1.029415693052e-17       5.411203912812e-10       5.063936613945e-11       4.958890755695e-14 
   16       1.166086581325e-10       8.410804347174e-16       1.602809958769e-13       1.168260598130e-17       4.865184777956e-10       4.601903827464e-11       7.229797556749e-15 
   17       1.179457189909e-10       8.419360252159e-16       1.707677627088e-13       1.316052980321e-17       4.396803929180e-10       4.203019280200e-11      -2.793143369829e-14 
   18       1.193946332898e-10       8.958972314931e-16       1.812583290221e-13       1.472802938647e-17       3.990278840194e-10       3.848720602266e-11      -5.233654340870e-14 
   19       1.209633299898e-10       9.702809236809e-16       1.907730004007e-13       1.638515647020e-17       3.639185037961e-10       3.536065221574e-11      -6.510493415459e-14 
   20       1.225959291973e-10       1.031607983071e-15       1.985684994324e-13       1.813190526856e-17       3.329958035364e-10       3.259774794081e-11      -6.707205671532e-14 
   21       1.243043513035e-10       1.082805526899e-15       2.047243657739e-13       1.996823778100e-17       3.057739209666e-10       3.015426906453e-11      -6.038739429959e-14 
   22       1.260882942923e-10       1.141986397206e-15       2.096933488146e-13       2.189407390483e-17       2.816024016198e-10       2.794878312605e-11      -4.841013571189e-14 
   23       1.279369654886e-10       1.228546323604e-15       2.139232932250e-13       2.390932151702e-17       2.601492023060e-10       2.595025111973e-11      -3.407847059497e-14 
   24       1.298182815032e-10       1.361084276797e-15       2.179345025985e-13       2.601386654036e-17       2.409184404425e-10       2.412517986780e-11      -2.047678576495e-14 
   25       1.317491124264e-10       1.540009891474e-15       2.222216962659e-13       2.820760801235e-17       2.236838694162e-10       2.248295362494e-11      -9.446745629339e-15 
   26       1.337417845369e-10       1.758307049853e-15       2.272301627160e-13       3.049044592852e-17       2.081334766798e-10       2.102600262891e-11      -2.331121590543e-15 
   27       1.357774461119e-10       2.009558947739e-15       2.329800898764e-13       3.286231197258e-17       1.940808861078e-10       1.972155167542e-11       6.622654261382e-16 
   28       1.378204661572e-10       2.287356256834e-15       2.392873025505e-13       3.532316175774e-17       1.812840416765e-10       1.851894452017e-11      -9.556711691200e-17 
   29       1.398805785147e-10       2.591215135897e-15       2.458478847249e-13       3.787301021770e-17       1.696776104242e-10       1.741365407334e-11      -3.801706220202e-15 
   30       1.419720228645e-10       2.922379269032e-15       2.522261796903e-13       4.051191183780e-17       1.591368790624e-10       1.640675594172e-11      -9.227108453276e-15 
   31       1.440986533106e-10       3.281472736958e-15       2.579083956404e-13       4.323996056756e-17       1.494467503234e-10       1.549001387833e-11      -1.492879883416e-14 
   32       1.462633577352e-10       3.666382841714e-15       2.625223116801e-13       4.605731344293e-17       1.405572546032e-10       1.465415696022e-11      -2.002891892582e-14 
   33       1.484594370413e-10       4.073483400806e-15       2.656891515185e-13       4.896418426833e-17       1.324056565024e-10       1.388178359366e-11      -2.370029228632e-14 
   34       1.506740182017e-10       4.499624477483e-15       2.670412506644e-13       5.196083735552e-17       1.248780103775e-10       1.315157695416e-11      -2.518466542483e-14 
   35       1.529137303470e-10       4.947398416289e-15       2.664970702284e-13       5.504756900980e-17       1.179358328433e-10       1.246410273799e-11      -2.459154511556e-14 
   36       1.551863565340e-10       5.421782330165e-15       2.640843059161e-13       5.822472750839e-17       1.115234452630e-10       1.182417196205e-11      -2.238988659234e-14 
   37       1.574942941614e-10       5.927943871904e-15       2.598749638910e-13       6.149269803200e-17       1.055574089824e-10       1.123367817398e-11      -1.915245596746e-14 
   38       1.598380100173e-10       6.468207931686e-15       2.540005362786e-13       6.485181872291e-17       1.000223368560e-10       1.069143458541e-11      -1.535870998016e-14 
   39       1.622124952266e-10       7.044133937403e-15       2.466474526090e-13       6.830244222849e-17       9.490069692022e-11       1.019273509590e-11      -1.154196032278e-14 
   40       1.646054512353e-10       7.657329367265e-15       2.380574087707e-13       7.184496126795e-17       9.014366771782e-11       9.728983595306e-12      -8.351400725849e-15 
   41       1.670029290516e-10       8.309154248865e-15       2.284588407197e-13       7.547977003224e-17       8.568815588935e-11       9.290431876147e-12      -6.389582957784e-15 
   42       1.694101237075e-10       8.999716763107e-15       2.178263226445e-13       7.920712749066e-17       8.152107347198e-11       8.876242966869e-12      -5.643981600425e-15 
   43       1.718361805975e-10       9.728552215736e-15       2.060485818387e-13       8.302725363322e-17       7.763139061504e-11       8.487159260240e-12      -5.882450055110e-15 
   44       1.742881921544e-10       1.049487212494e-14       1.929921645553e-13       8.694036622794e-17       7.399084724380e-11       8.122612879460e-12      -6.802526302044e-15 
   45       1.767708573471e-10       1.129784767213e-14       1.785115726773e-13       9.094664352389e-17       7.056405460214e-11       7.781147950205e-12      -8.072613111199e-15 
   46       1.792859500498e-10       1.213760698167e-14       1.624869343654e-13       9.504610009101e-17       6.734563394746e-11       7.462104290056e-12      -9.480850380084e-15 
   47       1.818322504925e-10       1.301450287322e-14       1.447949629737e-13       9.923867311995e-17       6.433184726456e-11       7.164244825371e-12      -1.082306155134e-14 
   48       1.844053553561e-10       1.392883385739e-14       1.252973985733e-13       1.035242535683e-16       6.150939512938e-11       6.885183940941e-12      -1.185907878849e-14 
   49       1.869974137042e-10       1.488084211346e-14       1.038401332906e-13       1.079026836021e-16       5.885470560892e-11       6.621305288559e-12      -1.231085517055e-14 
   50       1.896003412923e-10       1.587072235059e-14       8.029576776394e-14       1.123737505173e-16       5.634103631572e-11       6.368809023967e-12      -1.195067692824e-14 
   51       1.922171047082e-10       1.689865591881e-14       5.470692779186e-14       1.169371724973e-16       5.396370298122e-11       6.127379317642e-12      -1.089840777652e-14 
   52       1.948530437269e-10       1.796478246145e-14       2.718033746322e-14       1.215926045668e-16       5.172046971324e-11       5.897370275433e-12      -9.401665008736e-15 
   53       1.975125626417e-10       1.906918836655e-14      -2.152070506056e-15       1.263396391135e-16       4.960399908754e-11       5.678735165113e-12      -7.755067654859e-15 
   54       2.001990298852e-10       2.021190525677e-14      -3.313198561696e-14       1.311778031637e-16       4.760150872558e-11       5.470997374525e-12      -6.302588678064e-15 
   55       2.029148199813e-10       2.139292565134e-14      -6.561321851717e-14       1.361066107287e-16       4.569867317729e-11       5.273475155323e-12      -5.357006703751e-15 
   56       2.056616815651e-10       2.261225796747e-14      -9.959107590893e-14       1.411257413121e-16       4.389325141214e-11       5.086087766444e-12      -4.929440313768e-15 
   57       2.084402849650e-10       2.386988253739e-14      -1.351030772772e-13       1.462349009757e-16       4.218424315835e-11       4.908698724889e-12      -4.936744321539e-15 
   58       2.112499951124e-10       2.516573481063e-14      -1.721924708343e-13       1.514337705879e-16       4.056776605634e-11       4.740860828757e-12      -5.277664917357e-15 
   59       2.140887767079e-10       2.649970451296e-14      -2.109086098732e-13       1.567220052453e-16       3.903687763798e-11       4.581797003139e-12      -5.831961976620e-15 
   60       2.169530993872e-10       2.787163480528e-14      -2.513073291222e-13       1.620992336939e-16       3.758139730580e-11       4.430381146008e-12      -6.459531368061e-15 
   61       2.198394266990e-10       2.928126570501e-14      -2.934394821444e-13       1.675651367711e-16       3.619073444732e-11       4.285442579266e-12      -7.029350928454e-15 
   62       2.227492881295e-10       3.072805141253e-14      -3.373126955301e-13       1.731197046156e-16       3.486351731408e-11       4.146802590117e-12      -7.515896371295e-15 
   63       2.256851824454e-10       3.221130030261e-14      -3.829216588007e-13       1.787630364271e-16       3.359981938284e-11       4.014437622070e-12      -7.922907974520e-15 
   64       2.286490506455e-10       3.373022448583e-14      -4.302592065323e-13       1.844952684300e-16       3.239826293666e-11       3.888167490050e-12      -8.255543840793e-15 
   65       2.316422313809e-10       3.528393719907e-14      -4.793163190687e-13       1.903165758025e-16       3.125593642645e-11       3.767646494034e-12      -8.520448488121e-15 
   66       2.346654163741e-10       3.687145019585e-14      -5.300821232340e-13       1.962271746045e-16       3.016831183261e-11       3.652354532696e-12      -8.725821440472e-15 
   67       2.377186058384e-10       3.849167113677e-14      -5.825438930458e-13       2.022273237068e-16       2.912916202665e-11       3.541588217039e-12      -8.881485818387e-15 
   68       2.408015755836e-10       4.014352172425e-14      -6.366869941167e-13       2.083173148109e-16       2.813222454392e-11       3.434658450474e-12      -8.997868719800e-15 
   69       2.439154878910e-10       4.182632573623e-14      -6.924947021845e-13       2.144974358517e-16       2.717676909897e-11       3.331549522096e-12      -9.082549131865e-15 
   70       2.470615284572e-10       4.353949529159e-14      -7.499483489230e-13       2.207680036099e-16       2.626301492355e-11       3.232378212828e-12      -9.143130540450e-15 
   71       2.502403926590e-10       4.528241753252e-14      -8.090273742854e-13       2.271293765587e-16       2.539044687909e-11       3.137195604150e-12      -9.188307278332e-15 
   72       2.534522540595e-10       4.705445510306e-14      -8.697093257770e-13       2.335819564882e-16       2.455777748362e-11       3.045983472215e-12      -9.227905284364e-15 
   73       2.566967329139e-10       4.885494662756e-14      -9.319698577278e-13       2.401261901291e-16       2.376290893858e-11       2.958650681955e-12      -9.272922862633e-15 
   74       2.599728646759e-10       5.068320718920e-14      -9.957827305651e-13       2.467625707767e-16       2.300289515572e-11       2.875029581197e-12      -9.335571441629e-15 
   75       2.632790685031e-10       5.253852880848e-14      -1.061119810086e-12       2.534916399152e-16       2.227390378395e-11       2.794872394766e-12      -9.429316333405e-15 
   76       2.666137907822e-10       5.442002113388e-14      -1.127948168866e-12       2.603138895883e-16       2.157216792538e-11       2.717917072890e-12      -9.564976912387e-15 
   77       2.699776407981e-10       5.632609891720e-14      -1.196220781858e-12       2.672294453683e-16       2.089712558553e-11       2.644106670130e-12      -9.738116037599e-15 
   78       2.733715891052e-10       5.825490151198e-14      -1.265884124885e-12       2.742383282574e-16       2.024878638731e-11       2.573403605940e-12      -9.939414397981e-15 
   79       2.767963096924e-10       6.020444161723e-14      -1.336880862810e-12       2.813405484065e-16       1.962677527724e-11       2.505721612991e-12      -1.015836768839e-14 
   80       2.802521623307e-10       6.217260247936e-14      -1.409149789381e-12       2.885361047047e-16       1.903031484666e-11       2.440923555489e-12      -1.038324656397e-14 
   81       2.837391749210e-10       6.415713509407e-14      -1.482625767083e-12       2.958249843674e-16       1.845820765302e-11       2.378819247511e-12      -1.060105659452e-14 
   82       2.872570258423e-10       6.615565540831e-14      -1.557239666990e-12       3.032071625257e-16       1.790881854107e-11       2.319163271323e-12      -1.079749821887e-14 
   83       2.908050262991e-10       6.816564152219e-14      -1.632918308610e-12       3.106826018144e-16       1.738005696413e-11       2.261652795714e-12      -1.095692669926e-14 
   84       2.943824879453e-10       7.018468285660e-14      -1.709592807548e-12       3.182512673266e-16       1.686988533177e-11       2.205998848899e-12      -1.106559876133e-14 
   85       2.979899344452e-10       7.221128124568e-14      -1.787225340284e-12       3.259131752241e-16       1.637797960578e-11       2.152158491946e-12      -1.112211864078e-14 
   86       3.016280593334e-10       7.424417813588e-14      -1.865786726774e-12       3.336683514688e-16       1.590431286272e-11       2.100137313755e-12      -1.112865839996e-14 
   87       3.052973475842e-10       7.628211584349e-14      -1.945248497105e-12       3.415168170231e-16       1.544864503625e-11       2.049918465440e-12      -1.108784018200e-14 
   88       3.089980644351e-10       7.832383899128e-14      -2.025582972648e-12       3.494585876972e-16       1.501051407923e-11       2.001461713193e-12      -1.100275140352e-14 
   89       3.127302442096e-10       8.036809594514e-14      -2.106763347222e-12       3.574936739958e-16       1.458922712567e-11       1.954702491135e-12      -1.087695994750e-14 
   90       3.164936791405e-10       8.241364025075e-14      -2.188763768245e-12       3.656220809651e-16       1.418385165281e-11       1.909550954180e-12      -1.071452935598e-14 
   91       3.202879081927e-10       8.445923207017e-14      -2.271559417893e-12       3.738438080400e-16       1.379320664311e-11       1.865891030887e-12      -1.052003402292e-14 
   92       3.241122058865e-10       8.650363961850e-14      -2.355126594260e-12       3.821588488906e-16       1.341585374626e-11       1.823579476321e-12      -1.029857438694e-14 
   93       3.279658397381e-10       8.854553065442e-14      -2.439434716197e-12       3.905673087863e-16       1.305043873310e-11       1.782481913478e-12      -1.005530399998e-14 
   94       3.318489111493e-10       9.058312516309e-14      -2.524420786048e-12       3.990697772097e-16       1.269679379855e-11       1.742589215473e-12      -9.793896369411e-15 
   95       3.357616209112e-10       9.261449284984e-14      -2.610011218287e-12       4.076670112614e-16       1.235498547594e-11       1.703916957516e-12      -9.517874545844e-15 
   96       3.397040044657e-10       9.463765836036e-14      -2.696129544307e-12       4.163598245774e-16       1.202497514151e-11       1.666469554455e-12      -9.231087080130e-15 
   97       3.436759244164e-10       9.665060120805e-14      -2.782696382712e-12       4.251490887893e-16       1.170661498482e-11       1.630239821374e-12      -8.937716515728e-15 
   98       3.476770630385e-10       9.865125570152e-14      -2.869629409613e-12       4.340357349846e-16       1.139964397915e-11       1.595208534183e-12      -8.642287881088e-15 
   99       3.517069147893e-10       1.006375108720e-13      -2.956843328926e-12       4.430207551661e-16       1.110368385191e-11       1.561343990211e-12      -8.349677182042e-15 
  100       3.557647788185e-10       1.026072104007e-13      -3.044249842661e-12       4.521052037128e-16       1.081823505512e-11       1.528601568804e-12      -8.065119894188e-15 
  101       3.598497514786e-10       1.045581525464e-13      -3.131757621222e-12       4.612901988395e-16       1.054267273574e-11       1.496923291913e-12      -7.794219455273e-15 
  102       3.639607188350e-10       1.064880900726e-13      -3.219272273703e-12       4.705769240571e-16       1.027624270617e-11       1.466237384691e-12      -7.542955757584e-15 
  103       3.680963491769e-10       1.083947301752e-13      -3.306696318176e-12       4.799666296327e-16       1.001805741461e-11       1.436457836088e-12      -7.317693640329e-15 
  104       3.722553771070e-10       1.102758430308e-13      -3.393935672739e-12       4.894605020678e-16       9.767297264135e-12       1.407503911034e-12      -7.123716128476e-15 
  105       3.764375156525e-10       1.121296042974e-13      -3.480920191221e-12       4.990592493086e-16       9.523854220986e-12       1.379362635291e-12      -6.960580202404e-15 
  106       3.806426539777e-10       1.139542989606e-13      -3.567585859084e-12       5.087634619647e-16       9.287768040816e-12       1.352033971512e-12      -6.826146572081e-15 
  107       3.848705725731e-10       1.157482179518e-13      -3.653868561846e-12       5.185737402971e-16       9.059026932265e-12       1.325511403895e-12      -6.717991281478e-15 
