# Matter power spectrum P(k) at redshift z=0
# for k=1.04437e-05 to 8.47306 h/Mpc,
# number of wavenumbers equal to 612
#    1:k (h/Mpc)              2:P (Mpc/h)^3        
       1.044373177903e-05       5.248564192137e+01 
       2.330863537068e-05       1.136091297252e+02 
       3.621868663117e-05       1.735914523727e+02 
       4.920853451248e-05       2.331059787833e+02 
       6.231339980672e-05       2.925316085173e+02 
       7.556938842102e-05       3.521496943590e+02 
       8.901381464780e-05       4.121991385305e+02 
       1.026855387201e-04       4.728988748645e+02 
       1.166253229746e-04       5.344593516860e+02 
       1.308762109776e-04       5.970894323730e+02 
       1.454839339779e-04       6.610011384830e+02 
       1.604973489896e-04       7.264133241816e+02 
       1.759689126343e-04       7.935547670437e+02 
       1.919551945090e-04       8.626669829181e+02 
       2.085174331949e-04       9.340069091302e+02 
       2.257221369641e-04       1.007849529243e+03 
       2.436417296000e-04       1.084490511270e+03 
       2.623552393076e-04       1.164248856334e+03 
       2.819490251928e-04       1.247469538283e+03 
       3.025175308975e-04       1.334526106649e+03 
       3.241640483247e-04       1.425823150774e+03 
       3.470014655728e-04       1.521798526910e+03 
       3.711529618447e-04       1.622925148964e+03 
       3.967525979545e-04       1.729712137042e+03 
       4.239457341305e-04       1.842705009824e+03 
       4.528891876214e-04       1.962484541554e+03 
       4.837510224735e-04       2.089663861084e+03 
       5.167098452353e-04       2.224883265969e+03 
       5.519534672995e-04       2.368802244999e+03 
       5.896767928497e-04       2.522088190774e+03 
       6.300788082150e-04       2.685401442571e+03 
       6.733585917181e-04       2.859376509264e+03 
       7.197103392683e-04       3.044599659006e+03 
       7.693175119673e-04       3.241583673760e+03 
       8.223463515743e-04       3.450740933830e+03 
       8.789391602777e-04       3.672356963267e+03 
       9.392078736640e-04       3.906566545025e+03 
       1.003228533781e-03       4.153335261609e+03 
       1.071037259171e-03       4.412448683982e+03 
       1.142628192868e-03       4.683510960195e+03 
       1.217953696304e-03       4.965953541981e+03 
       1.296926784502e-03       5.259053484363e+03 
       1.379425523210e-03       5.561944938278e+03 
       1.465298890741e-03       5.873664621636e+03 
       1.554373487338e-03       6.193224518718e+03 
       1.646460465116e-03       6.519578702334e+03 
       1.741362135232e-03       6.851677963829e+03 
       1.838877851048e-03       7.188494398052e+03 
       1.938808927383e-03       7.529040535395e+03 
       2.040962504488e-03       7.872383443996e+03 
       2.145154381719e-03       8.217654051315e+03 
       2.251210923456e-03       8.564052529429e+03 
       2.358970181254e-03       8.910850373647e+03 
       2.468282389267e-03       9.257389185548e+03 
       2.579009983657e-03       9.603078753732e+03 
       2.691027279241e-03       9.947395153127e+03 
       2.804219914343e-03       1.028987218456e+04 
       2.918484151863e-03       1.063010192796e+04 
       3.033726103536e-03       1.096772661290e+04 
       3.149860926338e-03       1.130243382398e+04 
       3.266812025326e-03       1.163395338474e+04 
       3.384510285802e-03       1.196204697116e+04 
       3.502893349042e-03       1.228651360028e+04 
       3.621904939533e-03       1.260718341752e+04 
       3.741494247176e-03       1.292391499361e+04 
       3.861615364856e-03       1.323658331389e+04 
       3.982226779769e-03       1.354509046512e+04 
       4.103290915627e-03       1.384934728950e+04 
       4.224773722193e-03       1.414928574524e+04 
       4.346644308240e-03       1.444484973092e+04 
       4.468874613990e-03       1.473599459809e+04 
       4.591439119167e-03       1.502268617429e+04 
       4.714314583002e-03       1.530489728687e+04 
       4.837479812791e-03       1.558260960518e+04 
       4.960915457882e-03       1.585581298294e+04 
       5.084603826267e-03       1.612452805225e+04 
       5.208528721218e-03       1.638873857833e+04 
       5.332675295699e-03       1.664846342030e+04 
       5.457029922526e-03       1.690371217070e+04 
       5.581580078455e-03       1.715449636811e+04 
       5.706314240622e-03       1.740084718552e+04 
       5.831221793918e-03       1.764278649595e+04 
       5.956292948043e-03       1.788033952350e+04 
       6.081518663161e-03       1.811353496210e+04 
       6.206890583171e-03       1.834241748100e+04 
       6.332400975749e-03       1.856700618543e+04 
       6.458042678406e-03       1.878734419269e+04 
       6.583809049900e-03       1.900347605829e+04 
       6.709693926418e-03       1.921541331209e+04 
       6.835691582006e-03       1.942322459466e+04 
       6.961796692795e-03       1.962693296410e+04 
       7.088004304625e-03       1.982659398362e+04 
       7.214309803691e-03       2.002223754395e+04 
       7.340708889925e-03       2.021390762174e+04 
       7.467197552800e-03       2.040165761758e+04 
       7.593772049333e-03       2.058551938826e+04 
       7.720428884055e-03       2.076553527287e+04 
       7.847164790751e-03       2.094175900180e+04 
       7.973976715797e-03       2.111423021586e+04 
       8.100861802942e-03       2.128298904530e+04 
       8.227817379383e-03       2.144807807406e+04 
       8.354840943028e-03       2.160953752744e+04 
       8.481930150815e-03       2.176741653162e+04 
       8.609082808003e-03       2.192174811790e+04 
       8.736296858337e-03       2.207257337054e+04 
       8.863570375013e-03       2.221993083453e+04 
       8.990901552363e-03       2.236386211240e+04 
       9.118288698205e-03       2.250439522057e+04 
       9.245730226786e-03       2.264158443738e+04 
       9.373224652288e-03       2.277545505747e+04 
       9.500770582819e-03       2.290604680678e+04 
       9.628366714874e-03       2.303338999940e+04 
       9.756011828214e-03       2.315752699676e+04 
       9.883704781122e-03       2.327849852901e+04 
       1.001144450602e-02       2.339631172380e+04 
       1.013923000543e-02       2.351102498403e+04 
       1.026706034814e-02       2.362266075980e+04 
       1.039493466583e-02       2.373126616692e+04 
       1.052285214971e-02       2.383686359300e+04 
       1.065081204760e-02       2.393948931702e+04 
       1.077881366112e-02       2.403918189062e+04 
       1.090685634309e-02       2.413597545373e+04 
       1.103493949510e-02       2.422988795998e+04 
       1.116306256533e-02       2.432099538957e+04 
       1.129122504642e-02       2.440927347109e+04 
       1.141942647354e-02       2.449480060537e+04 
       1.154766642261e-02       2.457758903632e+04 
       1.167594450861e-02       2.465769547500e+04 
       1.180426038402e-02       2.473514355780e+04 
       1.193261373739e-02       2.480993355302e+04 
       1.206100429197e-02       2.488214417660e+04 
       1.218943180446e-02       2.495178071470e+04 
       1.231789606385e-02       2.501888787892e+04 
       1.244639689035e-02       2.508349210104e+04 
       1.257493413436e-02       2.514563809425e+04 
       1.270350767555e-02       2.520533724377e+04 
       1.283211742200e-02       2.526263582400e+04 
       1.296076330937e-02       2.531756963141e+04 
       1.308944530021e-02       2.537015528481e+04 
       1.321816338322e-02       2.542041989588e+04 
       1.334691757263e-02       2.546840367083e+04 
       1.347570790765e-02       2.551412498354e+04 
       1.360453445188e-02       2.555760426750e+04 
       1.373339729287e-02       2.559888757330e+04 
       1.386229654162e-02       2.563798805761e+04 
       1.399123233221e-02       2.567492824911e+04 
       1.412020482142e-02       2.570973679897e+04 
       1.424921418835e-02       2.574244525968e+04 
       1.437826063419e-02       2.577306074131e+04 
       1.450734438190e-02       2.580162844657e+04 
       1.463646567596e-02       2.582816607161e+04 
       1.476562478220e-02       2.585269661486e+04 
       1.489482198761e-02       2.587525650374e+04 
       1.502405760016e-02       2.589585432082e+04 
       1.515333194869e-02       2.591452563249e+04 
       1.528264538281e-02       2.593130188531e+04 
       1.541199827281e-02       2.594620494583e+04 
       1.554139100960e-02       2.595926305003e+04 
       1.567082400472e-02       2.597049327221e+04 
       1.580029769025e-02       2.597994974505e+04 
       1.592981251888e-02       2.598761126694e+04 
       1.605936896395e-02       2.599352893453e+04 
       1.618896751942e-02       2.599772119713e+04 
       1.631860870005e-02       2.600020013621e+04 
       1.644829304137e-02       2.600102959590e+04 
       1.657802109990e-02       2.600017979388e+04 
       1.670779345319e-02       2.599770209982e+04 
       1.683761070000e-02       2.599361566992e+04 
       1.696747346046e-02       2.598795918783e+04 
       1.709738237625e-02       2.598071527984e+04 
       1.722733811078e-02       2.597193691364e+04 
       1.735734134941e-02       2.596164897195e+04 
       1.748739279968e-02       2.594983347037e+04 
       1.761749319155e-02       2.593654905275e+04 
       1.774764327769e-02       2.592182718093e+04 
       1.787784383371e-02       2.590564266198e+04 
       1.800809565850e-02       2.588805024256e+04 
       1.813839957452e-02       2.586905838522e+04 
       1.826875642813e-02       2.584869642904e+04 
       1.839916708995e-02       2.582697191297e+04 
       1.852963245520e-02       2.580393184200e+04 
       1.866015344411e-02       2.577957865325e+04 
       1.879073100227e-02       2.575392234658e+04 
       1.892136610109e-02       2.572698770039e+04 
       1.905205973821e-02       2.569879536614e+04 
       1.918281293795e-02       2.566942147866e+04 
       1.931362675178e-02       2.563882515306e+04 
       1.944450225878e-02       2.560700004397e+04 
       1.957544056618e-02       2.557400725436e+04 
       1.970644280986e-02       2.553992760937e+04 
       1.983751015490e-02       2.550467098375e+04 
       1.996864379612e-02       2.546828856804e+04 
       2.009984495868e-02       2.543082986744e+04 
       2.023111489866e-02       2.539230074039e+04 
       2.036245490369e-02       2.535271712346e+04 
       2.049386629360e-02       2.531206509301e+04 
       2.062535042105e-02       2.527038779800e+04 
       2.075690867226e-02       2.522771545992e+04 
       2.088854246766e-02       2.518409134202e+04 
       2.102025326266e-02       2.513943027447e+04 
       2.115204254839e-02       2.509381953233e+04 
       2.128391185246e-02       2.504730534914e+04 
       2.141586273978e-02       2.499987421191e+04 
       2.154789681340e-02       2.495152588895e+04 
       2.168001571532e-02       2.490232429906e+04 
       2.181222112739e-02       2.485223225038e+04 
       2.194451477223e-02       2.480129899938e+04 
       2.207689841415e-02       2.474954116162e+04 
       2.220937386012e-02       2.469696163754e+04 
       2.234194296075e-02       2.464356798199e+04 
       2.247460761135e-02       2.458938369872e+04 
       2.260736975293e-02       2.453443951164e+04 
       2.274023137336e-02       2.447870177081e+04 
       2.287319450845e-02       2.442229649072e+04 
       2.300626124311e-02       2.436516798448e+04 
       2.313943371256e-02       2.430729293032e+04 
       2.327271410359e-02       2.424876728883e+04 
       2.340610465576e-02       2.418950638226e+04 
       2.353960766279e-02       2.412962361925e+04 
       2.367322547388e-02       2.406907844976e+04 
       2.380696049508e-02       2.400791514344e+04 
       2.394081519080e-02       2.394612651942e+04 
       2.407479208525e-02       2.388371922263e+04 
       2.420889376398e-02       2.382071661725e+04 
       2.434312287547e-02       2.375717283532e+04 
       2.447748213279e-02       2.369298423561e+04 
       2.461197431524e-02       2.362836034973e+04 
       2.474660227016e-02       2.356314860444e+04 
       2.488136891466e-02       2.349745094722e+04 
       2.501627723756e-02       2.343115950380e+04 
       2.515133030123e-02       2.336443852577e+04 
       2.528653124364e-02       2.329715470848e+04 
       2.542188328041e-02       2.322951920124e+04 
       2.555738970688e-02       2.316139812190e+04 
       2.569305390036e-02       2.309280394073e+04 
       2.582887932238e-02       2.302380471324e+04 
       2.596486952102e-02       2.295433361922e+04 
       2.610102813336e-02       2.288447641506e+04 
       2.623735888800e-02       2.281423043333e+04 
       2.637386560760e-02       2.274360198557e+04 
       2.651055221165e-02       2.267261342116e+04 
       2.664742271918e-02       2.260119834661e+04 
       2.678448125170e-02       2.252949894765e+04 
       2.692173203615e-02       2.245739392656e+04 
       2.705917940801e-02       2.238515887107e+04 
       2.719682781448e-02       2.231228997185e+04 
       2.733468181785e-02       2.223937839599e+04 
       2.747274609888e-02       2.216597968538e+04 
       2.761102546042e-02       2.209235682866e+04 
       2.774952483110e-02       2.201843387962e+04 
       2.788824926915e-02       2.194431052593e+04 
       2.802720396640e-02       2.186990925106e+04 
       2.816639425243e-02       2.179526403393e+04 
       2.830582559887e-02       2.172040900363e+04 
       2.844550362381e-02       2.164525845813e+04 
       2.858543409651e-02       2.156990939569e+04 
       2.872562294215e-02       2.149439289396e+04 
       2.886607624688e-02       2.141863135667e+04 
       2.900680026301e-02       2.134268837911e+04 
       2.914780141443e-02       2.126657276739e+04 
       2.928908630222e-02       2.119021875550e+04 
       2.943066171057e-02       2.111375530512e+04 
       2.957253461281e-02       2.103717310083e+04 
       2.971471217781e-02       2.096038387694e+04 
       2.985720177661e-02       2.088346249309e+04 
       3.000001098928e-02       2.080635630048e+04 
       3.014314761216e-02       2.072921492332e+04 
       3.028661966532e-02       2.065188678675e+04 
       3.043043540043e-02       2.057446777140e+04 
       3.057460330886e-02       2.049697002453e+04 
       3.071913213029e-02       2.041931955128e+04 
       3.086403086154e-02       2.034162760823e+04 
       3.100930876590e-02       2.026380232404e+04 
       3.115497538288e-02       2.018593739846e+04 
       3.130104053831e-02       2.010799321870e+04 
       3.144751435504e-02       2.002992913118e+04 
       3.159440726399e-02       1.995186418484e+04 
       3.174173001588e-02       1.987375634983e+04 
       3.188949369336e-02       1.979556191118e+04 
       3.203770972381e-02       1.971735854287e+04 
       3.218638989273e-02       1.963908363037e+04 
       3.233554635779e-02       1.956080164306e+04 
       3.248519166358e-02       1.948245286260e+04 
       3.263533875702e-02       1.940406175069e+04 
       3.278600100365e-02       1.932571207552e+04 
       3.293719220470e-02       1.924734656906e+04 
       3.308892661497e-02       1.916881877693e+04 
       3.324121896173e-02       1.909049413398e+04 
       3.339408446455e-02       1.901210814347e+04 
       3.354753885620e-02       1.893364495829e+04 
       3.370159840461e-02       1.885526499130e+04 
       3.385627993613e-02       1.877688740439e+04 
       3.401160085989e-02       1.869850891986e+04 
       3.416757919367e-02       1.862012347537e+04 
       3.432423359106e-02       1.854178985973e+04 
       3.448158337027e-02       1.846343312067e+04 
       3.463964854446e-02       1.838517036125e+04 
       3.479844985392e-02       1.830687358626e+04 
       3.495800880009e-02       1.822867589103e+04 
       3.511834768149e-02       1.815044067942e+04 
       3.527948963194e-02       1.807229300361e+04 
       3.544145866097e-02       1.799413164889e+04 
       3.560427969670e-02       1.791602906452e+04 
       3.576797863144e-02       1.783795764413e+04 
       3.593258237003e-02       1.775992649511e+04 
       3.609811888132e-02       1.768191262401e+04 
       3.626461725287e-02       1.760395196946e+04 
       3.643210774925e-02       1.752603379955e+04 
       3.660062187413e-02       1.744817447735e+04 
       3.677019243648e-02       1.737032886972e+04 
       3.694085362129e-02       1.729258543799e+04 
       3.711264106499e-02       1.721480185101e+04 
       3.728559193620e-02       1.713710933846e+04 
       3.745974502206e-02       1.705947486888e+04 
       3.763514082071e-02       1.698184775445e+04 
       3.781182164042e-02       1.690425998072e+04 
       3.798983170592e-02       1.682668543274e+04 
       3.816921727262e-02       1.674915518851e+04 
       3.835002674943e-02       1.667173146206e+04 
       3.853231083085e-02       1.659428831463e+04 
       3.871612263935e-02       1.651686039293e+04 
       3.890151787882e-02       1.643942415566e+04 
       3.908855500032e-02       1.636201189342e+04 
       3.927729538116e-02       1.628466806762e+04 
       3.946780351872e-02       1.620734013931e+04 
       3.966014724038e-02       1.612998072552e+04 
       3.985439793126e-02       1.605264089032e+04 
       4.005063078161e-02       1.597534480285e+04 
       4.024892505572e-02       1.589798574079e+04 
       4.044936438488e-02       1.582060970462e+04 
       4.065203708680e-02       1.574323056003e+04 
       4.085703651443e-02       1.566591299374e+04 
       4.106446143743e-02       1.558839196785e+04 
       4.127441646009e-02       1.551098394417e+04 
       4.148701247972e-02       1.543351501307e+04 
       4.170236719040e-02       1.535596123495e+04 
       4.192060563749e-02       1.527828575447e+04 
       4.214186082903e-02       1.520060989723e+04 
       4.236627441106e-02       1.512280421140e+04 
       4.259399741506e-02       1.504494110489e+04 
       4.282519108669e-02       1.496693139723e+04 
       4.306002780655e-02       1.488881642613e+04 
       4.329869211537e-02       1.481057799698e+04 
       4.354138185778e-02       1.473217489215e+04 
       4.378830946139e-02       1.465361850133e+04 
       4.403970337039e-02       1.457487009816e+04 
       4.429580965633e-02       1.449590840627e+04 
       4.455689383229e-02       1.441671501999e+04 
       4.482324290168e-02       1.433731143578e+04 
       4.509516767813e-02       1.425760693747e+04 
       4.537300541973e-02       1.417762917307e+04 
       4.565712282897e-02       1.409731473307e+04 
       4.594791947965e-02       1.401666345316e+04 
       4.624583174372e-02       1.393566100977e+04 
       4.655133730601e-02       1.385422094359e+04 
       4.686496037257e-02       1.377234303170e+04 
       4.718727770071e-02       1.368993896396e+04 
       4.751892560617e-02       1.360706664203e+04 
       4.786060813742e-02       1.352354913833e+04 
       4.821310664949e-02       1.343941586895e+04 
       4.857729106385e-02       1.335457986608e+04 
       4.895413316805e-02       1.326895754796e+04 
       4.934472239468e-02       1.318248772164e+04 
       4.975028462729e-02       1.309511784743e+04 
       5.017220471915e-02       1.300669340881e+04 
       5.061205358594e-02       1.291716492282e+04 
       5.107162095769e-02       1.282632436150e+04 
       5.155295516037e-02       1.273409200208e+04 
       5.205841165891e-02       1.264025730754e+04 
       5.259071254830e-02       1.254466066686e+04 
       5.315301974228e-02       1.244700652629e+04 
       5.374902528760e-02       1.234704628250e+04 
       5.438306300969e-02       1.224441714691e+04 
       5.506024650216e-02       1.213868810811e+04 
       5.578663912166e-02       1.202929503079e+04 
       5.656946171544e-02       1.191554198946e+04 
       5.741734239937e-02       1.179661233803e+04 
       5.834060804680e-02       1.167120688504e+04 
       5.935160590653e-02       1.153803667086e+04 
       6.046502007103e-02       1.139495868089e+04 
       6.169810212738e-02       1.123929299514e+04 
