# Matter power spectrum P(k) at redshift z=4
# for k=1.04437e-05 to 8.47306 h/Mpc,
# number of wavenumbers equal to 612
#    1:k (h/Mpc)              2:P (Mpc/h)^3        
       1.044373177903e-05       3.368197015392e+00 
       2.330863537068e-05       7.290731390410e+00 
       3.621868663117e-05       1.114006516032e+01 
       4.920853451248e-05       1.495942849756e+01 
       6.231339980672e-05       1.877315559070e+01 
       7.556938842102e-05       2.259932163960e+01 
       8.901381464780e-05       2.645327914279e+01 
       1.026855387201e-04       3.034910207977e+01 
       1.166253229746e-04       3.430032274102e+01 
       1.308762109776e-04       3.832037515868e+01 
       1.454839339779e-04       4.242290080624e+01 
       1.604973489896e-04       4.662198474844e+01 
       1.759689126343e-04       5.093235561670e+01 
       1.919551945090e-04       5.536956721764e+01 
       2.085174331949e-04       5.995017212725e+01 
       2.257221369641e-04       6.469189228163e+01 
       2.436417296000e-04       6.961378996828e+01 
       2.623552393076e-04       7.473644039874e+01 
       2.819490251928e-04       8.008210376888e+01 
       3.025175308975e-04       8.567489535779e+01 
       3.241640483247e-04       9.154094750634e+01 
       3.470014655728e-04       9.770855566623e+01 
       3.711529618447e-04       1.042082982391e+02 
       3.967525979545e-04       1.110731136757e+02 
       4.239457341305e-04       1.183383167189e+02 
       4.528891876214e-04       1.260415283968e+02 
       4.837510224735e-04       1.342224909136e+02 
       5.167098452353e-04       1.429227337127e+02 
       5.519534672995e-04       1.521850575969e+02 
       5.896767928497e-04       1.620528003672e+02 
       6.300788082150e-04       1.725688623038e+02 
       6.733585917181e-04       1.837744778571e+02 
       7.197103392683e-04       1.957077489271e+02 
       7.693175119673e-04       2.084019894672e+02 
       8.223463515743e-04       2.218839621986e+02 
       8.789391602777e-04       2.361721444714e+02 
       9.392078736640e-04       2.512751728809e+02 
       1.003228533781e-03       2.671906463130e+02 
       1.071037259171e-03       2.839044428383e+02 
       1.142628192868e-03       3.013906601473e+02 
       1.217953696304e-03       3.196122258211e+02 
       1.296926784502e-03       3.385221269544e+02 
       1.379425523210e-03       3.580642074667e+02 
       1.465298890741e-03       3.781761474608e+02 
       1.554373487338e-03       3.987941801840e+02 
       1.646460465116e-03       4.198509818127e+02 
       1.741362135232e-03       4.412791932665e+02 
       1.838877851048e-03       4.630129813412e+02 
       1.938808927383e-03       4.849892288995e+02 
       2.040962504488e-03       5.071483743290e+02 
       2.145154381719e-03       5.294349428061e+02 
       2.251210923456e-03       5.517978287904e+02 
       2.358970181254e-03       5.741903895000e+02 
       2.468282389267e-03       5.965703410206e+02 
       2.579009983657e-03       6.188996449212e+02 
       2.691027279241e-03       6.411443704828e+02 
       2.804219914343e-03       6.632742428803e+02 
       2.918484151863e-03       6.852626165403e+02 
       3.033726103536e-03       7.070860563969e+02 
       3.149860926338e-03       7.287240810630e+02 
       3.266812025326e-03       7.501589507501e+02 
       3.384510285802e-03       7.713753433358e+02 
       3.502893349042e-03       7.923601184402e+02 
       3.621904939533e-03       8.131020140443e+02 
       3.741494247176e-03       8.335916825147e+02 
       3.861615364856e-03       8.538209269136e+02 
       3.982226779769e-03       8.737832951949e+02 
       4.103290915627e-03       8.934730474603e+02 
       4.224773722193e-03       9.128857756463e+02 
       4.346644308240e-03       9.320178936622e+02 
       4.468874613990e-03       9.508665370710e+02 
       4.591439119167e-03       9.694295731341e+02 
       4.714314583002e-03       9.877053918371e+02 
       4.837479812791e-03       1.005693149680e+03 
       4.960915457882e-03       1.023391963837e+03 
       5.084603826267e-03       1.040802102692e+03 
       5.208528721218e-03       1.057923554621e+03 
       5.332675295699e-03       1.074756954592e+03 
       5.457029922526e-03       1.091303342217e+03 
       5.581580078455e-03       1.107563569197e+03 
       5.706314240622e-03       1.123539425414e+03 
       5.831221793918e-03       1.139232417961e+03 
       5.956292948043e-03       1.154644042858e+03 
       6.081518663161e-03       1.169776128560e+03 
       6.206890583171e-03       1.184631494679e+03 
       6.332400975749e-03       1.199211236366e+03 
       6.458042678406e-03       1.213518146315e+03 
       6.583809049900e-03       1.227554805169e+03 
       6.709693926418e-03       1.241321820803e+03 
       6.835691582006e-03       1.254821514691e+03 
       6.961796692795e-03       1.268053096765e+03 
       7.088004304625e-03       1.281020383916e+03 
       7.214309803691e-03       1.293725309320e+03 
       7.340708889925e-03       1.306170785634e+03 
       7.467197552800e-03       1.318360285152e+03 
       7.593772049333e-03       1.330295851711e+03 
       7.720428884055e-03       1.341980272111e+03 
       7.847164790751e-03       1.353417040908e+03 
       7.973976715797e-03       1.364608762653e+03 
       8.100861802942e-03       1.375558129068e+03 
       8.227817379383e-03       1.386267996000e+03 
       8.354840943028e-03       1.396741134240e+03 
       8.481930150815e-03       1.406980891427e+03 
       8.609082808003e-03       1.416989652010e+03 
       8.736296858337e-03       1.426770334803e+03 
       8.863570375013e-03       1.436325747372e+03 
       8.990901552363e-03       1.445658915825e+03 
       9.118288698205e-03       1.454772481036e+03 
       9.245730226786e-03       1.463669416320e+03 
       9.373224652288e-03       1.472352210592e+03 
       9.500770582819e-03       1.480823897672e+03 
       9.628366714874e-03       1.489086493578e+03 
       9.756011828214e-03       1.497144549050e+03 
       9.883704781122e-03       1.505004028375e+03 
       1.001144450602e-02       1.512656171191e+03 
       1.013923000543e-02       1.520111021171e+03 
       1.026706034814e-02       1.527369555005e+03 
       1.039493466583e-02       1.534434887501e+03 
       1.052285214971e-02       1.541309061281e+03 
       1.065081204760e-02       1.547993802554e+03 
       1.077881366112e-02       1.554492000619e+03 
       1.090685634309e-02       1.560805225140e+03 
       1.103493949510e-02       1.566935826203e+03 
       1.116306256533e-02       1.572884872110e+03 
       1.129122504642e-02       1.578654985912e+03 
       1.141942647354e-02       1.584248437375e+03 
       1.154766642261e-02       1.589665833679e+03 
       1.167594450861e-02       1.594910339823e+03 
       1.180426038402e-02       1.599982575778e+03 
       1.193261373739e-02       1.604884616542e+03 
       1.206100429197e-02       1.609618035124e+03 
       1.218943180446e-02       1.614184867592e+03 
       1.231789606385e-02       1.618586730651e+03 
       1.244639689035e-02       1.622824888786e+03 
       1.257493413436e-02       1.626902406927e+03 
       1.270350767555e-02       1.630818783174e+03 
       1.283211742200e-02       1.634577291787e+03 
       1.296076330937e-02       1.638180145133e+03 
       1.308944530021e-02       1.641628081353e+03 
       1.321816338322e-02       1.644923686501e+03 
       1.334691757263e-02       1.648068886281e+03 
       1.347570790765e-02       1.651065140983e+03 
       1.360453445188e-02       1.653914278182e+03 
       1.373339729287e-02       1.656619195764e+03 
       1.386229654162e-02       1.659180893931e+03 
       1.399123233221e-02       1.661601772494e+03 
       1.412020482142e-02       1.663883870636e+03 
       1.424921418835e-02       1.666029397866e+03 
       1.437826063419e-02       1.668039754326e+03 
       1.450734438190e-02       1.669916832622e+03 
       1.463646567596e-02       1.671663170933e+03 
       1.476562478220e-02       1.673280120959e+03 
       1.489482198761e-02       1.674770161211e+03 
       1.502405760016e-02       1.676134059217e+03 
       1.515333194869e-02       1.677374351760e+03 
       1.528264538281e-02       1.678492707691e+03 
       1.541199827281e-02       1.679490440425e+03 
       1.554139100960e-02       1.680369880508e+03 
       1.567082400472e-02       1.681131022847e+03 
       1.580029769025e-02       1.681777647341e+03 
       1.592981251888e-02       1.682308635679e+03 
       1.605936896395e-02       1.682725862657e+03 
       1.618896751942e-02       1.683031372265e+03 
       1.631860870005e-02       1.683226251435e+03 
       1.644829304137e-02       1.683311846324e+03 
       1.657802109990e-02       1.683288807726e+03 
       1.670779345319e-02       1.683160262336e+03 
       1.683761070000e-02       1.682925057158e+03 
       1.696747346046e-02       1.682587521100e+03 
       1.709738237625e-02       1.682146610653e+03 
       1.722733811078e-02       1.681605359045e+03 
       1.735734134941e-02       1.680964726538e+03 
       1.748739279968e-02       1.680224828042e+03 
       1.761749319155e-02       1.679388858639e+03 
       1.774764327769e-02       1.678459200070e+03 
       1.787784383371e-02       1.677434504432e+03 
       1.800809565850e-02       1.676318203862e+03 
       1.813839957452e-02       1.675111266481e+03 
       1.826875642813e-02       1.673815316789e+03 
       1.839916708995e-02       1.672430961266e+03 
       1.852963245520e-02       1.670961789539e+03 
       1.866015344411e-02       1.669407146616e+03 
       1.879073100227e-02       1.667768608359e+03 
       1.892136610109e-02       1.666047261765e+03 
       1.905205973821e-02       1.664245502045e+03 
       1.918281293795e-02       1.662365340185e+03 
       1.931362675178e-02       1.660406058927e+03 
       1.944450225878e-02       1.658367481980e+03 
       1.957544056618e-02       1.656255148772e+03 
       1.970644280986e-02       1.654068423786e+03 
       1.983751015490e-02       1.651806016261e+03 
       1.996864379612e-02       1.649470771193e+03 
       2.009984495868e-02       1.647066087607e+03 
       2.023111489866e-02       1.644590166881e+03 
       2.036245490369e-02       1.642046283888e+03 
       2.049386629360e-02       1.639432652084e+03 
       2.062535042105e-02       1.636752420618e+03 
       2.075690867226e-02       1.634006653295e+03 
       2.088854246766e-02       1.631198923293e+03 
       2.102025326266e-02       1.628323100617e+03 
       2.115204254839e-02       1.625386260313e+03 
       2.128391185246e-02       1.622390558365e+03 
       2.141586273978e-02       1.619335817680e+03 
       2.154789681340e-02       1.616220520553e+03 
       2.168001571532e-02       1.613049844782e+03 
       2.181222112739e-02       1.609821519147e+03 
       2.194451477223e-02       1.606538637286e+03 
       2.207689841415e-02       1.603202668632e+03 
       2.220937386012e-02       1.599812801086e+03 
       2.234194296075e-02       1.596370161088e+03 
       2.247460761135e-02       1.592876043437e+03 
       2.260736975293e-02       1.589332997038e+03 
       2.274023137336e-02       1.585739250545e+03 
       2.287319450845e-02       1.582100051815e+03 
       2.300626124311e-02       1.578414066571e+03 
       2.313943371256e-02       1.574678865165e+03 
       2.327271410359e-02       1.570902141963e+03 
       2.340610465576e-02       1.567077438712e+03 
       2.353960766279e-02       1.563212094072e+03 
       2.367322547388e-02       1.559303359170e+03 
       2.380696049508e-02       1.555355305938e+03 
       2.394081519080e-02       1.551364753960e+03 
       2.407479208525e-02       1.547334824689e+03 
       2.420889376398e-02       1.543265768899e+03 
       2.434312287547e-02       1.539161679539e+03 
       2.447748213279e-02       1.535015654418e+03 
       2.461197431524e-02       1.530841487341e+03 
       2.474660227016e-02       1.526628536232e+03 
       2.488136891466e-02       1.522384376635e+03 
       2.501627723756e-02       1.518101487425e+03 
       2.515133030123e-02       1.513790851279e+03 
       2.528653124364e-02       1.509445148543e+03 
       2.542188328041e-02       1.505074519677e+03 
       2.555738970688e-02       1.500671217608e+03 
       2.569305390036e-02       1.496238022317e+03 
       2.582887932238e-02       1.491779439813e+03 
       2.596486952102e-02       1.487288840740e+03 
       2.610102813336e-02       1.482773494853e+03 
       2.623735888800e-02       1.478232820674e+03 
       2.637386560760e-02       1.473667482742e+03 
       2.651055221165e-02       1.469077945054e+03 
       2.664742271918e-02       1.464461111376e+03 
       2.678448125170e-02       1.459825414222e+03 
       2.692173203615e-02       1.455163181423e+03 
       2.705917940801e-02       1.450492142745e+03 
       2.719682781448e-02       1.445780845182e+03 
       2.733468181785e-02       1.441065370675e+03 
       2.747274609888e-02       1.436318836927e+03 
       2.761102546042e-02       1.431557603451e+03 
       2.774952483110e-02       1.426778463033e+03 
       2.788824926915e-02       1.421982515736e+03 
       2.802720396640e-02       1.417172164218e+03 
       2.816639425243e-02       1.412342503244e+03 
       2.830582559887e-02       1.407501247314e+03 
       2.844550362381e-02       1.402640105390e+03 
       2.858543409651e-02       1.397766582343e+03 
       2.872562294215e-02       1.392881269719e+03 
       2.886607624688e-02       1.387980225116e+03 
       2.900680026301e-02       1.383067284053e+03 
       2.914780141443e-02       1.378143187888e+03 
       2.928908630222e-02       1.373203056991e+03 
       2.943066171057e-02       1.368255980773e+03 
       2.957253461281e-02       1.363300960413e+03 
       2.971471217781e-02       1.358332569375e+03 
       2.985720177661e-02       1.353355277287e+03 
       3.000001098928e-02       1.348366142249e+03 
       3.014314761216e-02       1.343374173397e+03 
       3.028661966532e-02       1.338370347813e+03 
       3.043043540043e-02       1.333360399292e+03 
       3.057460330886e-02       1.328345424443e+03 
       3.071913213029e-02       1.323321405190e+03 
       3.086403086154e-02       1.318292480553e+03 
       3.100930876590e-02       1.313255718122e+03 
       3.115497538288e-02       1.308216579843e+03 
       3.130104053831e-02       1.303172028479e+03 
       3.144751435504e-02       1.298119954776e+03 
       3.159440726399e-02       1.293067286893e+03 
       3.174173001588e-02       1.288011616269e+03 
       3.188949369336e-02       1.282950612410e+03 
       3.203770972381e-02       1.277888386444e+03 
       3.218638989273e-02       1.272821892321e+03 
       3.233554635779e-02       1.267754591668e+03 
       3.248519166358e-02       1.262682820682e+03 
       3.263533875702e-02       1.257608383773e+03 
       3.278600100365e-02       1.252535932296e+03 
       3.293719220470e-02       1.247463197338e+03 
       3.308892661497e-02       1.242379855851e+03 
       3.324121896173e-02       1.237309172315e+03 
       3.339408446455e-02       1.232235188490e+03 
       3.354753885620e-02       1.227155807944e+03 
       3.370159840461e-02       1.222080627353e+03 
       3.385627993613e-02       1.217006490388e+03 
       3.401160085989e-02       1.211932297195e+03 
       3.416757919367e-02       1.206857406681e+03 
       3.432423359106e-02       1.201785661595e+03 
       3.448158337027e-02       1.196712145463e+03 
       3.463964854446e-02       1.191644837532e+03 
       3.479844985392e-02       1.186575347450e+03 
       3.495800880009e-02       1.181511905322e+03 
       3.511834768149e-02       1.176447031159e+03 
       3.527948963194e-02       1.171386154829e+03 
       3.544145866097e-02       1.166324683975e+03 
       3.560427969670e-02       1.161267773939e+03 
       3.576797863144e-02       1.156212204787e+03 
       3.593258237003e-02       1.151160043051e+03 
       3.609811888132e-02       1.146108535092e+03 
       3.626461725287e-02       1.141059499363e+03 
       3.643210774925e-02       1.136013623840e+03 
       3.660062187413e-02       1.130971947617e+03 
       3.677019243648e-02       1.125930498752e+03 
       3.694085362129e-02       1.120895978933e+03 
       3.711264106499e-02       1.115859379878e+03 
       3.728559193620e-02       1.110827161032e+03 
       3.745974502206e-02       1.105799290766e+03 
       3.763514082071e-02       1.100771917390e+03 
       3.781182164042e-02       1.095747197728e+03 
       3.798983170592e-02       1.090722546131e+03 
       3.816921727262e-02       1.085702056456e+03 
       3.835002674943e-02       1.080687519008e+03 
       3.853231083085e-02       1.075673018441e+03 
       3.871612263935e-02       1.070657085733e+03 
       3.890151787882e-02       1.065641980300e+03 
       3.908855500032e-02       1.060628399770e+03 
       3.927729538116e-02       1.055618945496e+03 
       3.946780351872e-02       1.050610087435e+03 
       3.966014724038e-02       1.045599847242e+03 
       3.985439793126e-02       1.040590670974e+03 
       4.005063078161e-02       1.035584556225e+03 
       4.024892505572e-02       1.030573188399e+03 
       4.044936438488e-02       1.025561186849e+03 
       4.065203708680e-02       1.020548976501e+03 
       4.085703651443e-02       1.015541221020e+03 
       4.106446143743e-02       1.010519545617e+03 
       4.127441646009e-02       1.005505607735e+03 
       4.148701247972e-02       1.000487329803e+03 
       4.170236719040e-02       9.954639343170e+02 
       4.192060563749e-02       9.904325709107e+02 
       4.214186082903e-02       9.854010423969e+02 
       4.236627441106e-02       9.803608980524e+02 
       4.259399741506e-02       9.753171728605e+02 
       4.282519108669e-02       9.702637862339e+02 
       4.306002780655e-02       9.652039250967e+02 
       4.329869211537e-02       9.601363134571e+02 
       4.354138185778e-02       9.550565288418e+02 
       4.378830946139e-02       9.499679363653e+02 
       4.403970337039e-02       9.448659426118e+02 
       4.429580965633e-02       9.397512426986e+02 
       4.455689383229e-02       9.346211518856e+02 
       4.482324290168e-02       9.294768832606e+02 
       4.509516767813e-02       9.243139015804e+02 
       4.537300541973e-02       9.191322055120e+02 
       4.565712282897e-02       9.139299152418e+02 
       4.594791947965e-02       9.087055272575e+02 
       4.624583174372e-02       9.034575214667e+02 
       4.655133730601e-02       8.981805122997e+02 
       4.686496037257e-02       8.928763693004e+02 
       4.718727770071e-02       8.875375832525e+02 
       4.751892560617e-02       8.821691687373e+02 
       4.786060813742e-02       8.767584523486e+02 
       4.821310664949e-02       8.713076992934e+02 
       4.857729106385e-02       8.658119522127e+02 
       4.895413316805e-02       8.602641817574e+02 
       4.934472239468e-02       8.546623883800e+02 
       4.975028462729e-02       8.490024302881e+02 
       5.017220471915e-02       8.432729737695e+02 
       5.061205358594e-02       8.374724605983e+02 
       5.107162095769e-02       8.315877566007e+02 
       5.155295516037e-02       8.256116446894e+02 
       5.205841165891e-02       8.195323527587e+02 
       5.259071254830e-02       8.133382145935e+02 
       5.315301974228e-02       8.070123516589e+02 
       5.374902528760e-02       8.005355471072e+02 
       5.438306300969e-02       7.938860801118e+02 
       5.506024650216e-02       7.870350019949e+02 
       5.578663912166e-02       7.799475531031e+02 
       5.656946171544e-02       7.725779901956e+02 
       5.741734239937e-02       7.648709609428e+02 
       5.834060804680e-02       7.567460907504e+02 
       5.935160590653e-02       7.481165381659e+02 
       6.046502007103e-02       7.388458564591e+02 
       6.169810212738e-02       7.287588631974e+02 
