# Matter power spectrum P(k) at redshift z=1
# for k=1.04437e-05 to 8.47306 h/Mpc,
# number of wavenumbers equal to 612
#    1:k (h/Mpc)              2:P (Mpc/h)^3        
       1.044373177903e-05       1.937490277094e+01 
       2.330863537068e-05       4.193846749125e+01 
       3.621868663117e-05       6.408084052829e+01 
       4.920853451248e-05       8.605062752618e+01 
       6.231339980672e-05       1.079877364406e+02 
       7.556938842102e-05       1.299960660489e+02 
       8.901381464780e-05       1.521638471751e+02 
       1.026855387201e-04       1.745719475488e+02 
       1.166253229746e-04       1.972981059848e+02 
       1.308762109776e-04       2.204194823222e+02 
       1.454839339779e-04       2.440144121610e+02 
       1.604973489896e-04       2.681637609028e+02 
       1.759689126343e-04       2.929520703577e+02 
       1.919551945090e-04       3.184685981286e+02 
       2.085174331949e-04       3.448083097252e+02 
       2.257221369641e-04       3.720728515904e+02 
       2.436417296000e-04       4.003715282899e+02 
       2.623552393076e-04       4.298222815395e+02 
       2.819490251928e-04       4.605526702849e+02 
       3.025175308975e-04       4.927008344982e+02 
       3.241640483247e-04       5.264164088236e+02 
       3.470014655728e-04       5.618613466000e+02 
       3.711529618447e-04       5.992105865214e+02 
       3.967525979545e-04       6.386524751878e+02 
       4.239457341305e-04       6.803888372356e+02 
       4.528891876214e-04       7.246345507440e+02 
       4.837510224735e-04       7.716164656876e+02 
       5.167098452353e-04       8.215714736133e+02 
       5.519534672995e-04       8.747435419326e+02 
       5.896767928497e-04       9.313795142453e+02 
       6.300788082150e-04       9.917235565567e+02 
       6.733585917181e-04       1.056010179732e+03 
       7.197103392683e-04       1.124455932307e+03 
       7.693175119673e-04       1.197250055053e+03 
       8.223463515743e-04       1.274544549543e+03 
       8.789391602777e-04       1.356444435522e+03 
       9.392078736640e-04       1.442999023184e+03 
       1.003228533781e-03       1.534195188378e+03 
       1.071037259171e-03       1.629953498533e+03 
       1.142628192868e-03       1.730127776551e+03 
       1.217953696304e-03       1.834508355623e+03 
       1.296926784502e-03       1.942828755908e+03 
       1.379425523210e-03       2.054769795242e+03 
       1.465298890741e-03       2.169976256096e+03 
       1.554373487338e-03       2.288083629772e+03 
       1.646460465116e-03       2.408705829523e+03 
       1.741362135232e-03       2.531455480787e+03 
       1.838877851048e-03       2.655953073860e+03 
       1.938808927383e-03       2.781834142393e+03 
       2.040962504488e-03       2.908754427814e+03 
       2.145154381719e-03       3.036393256345e+03 
       2.251210923456e-03       3.164455414378e+03 
       2.358970181254e-03       3.292671861776e+03 
       2.468282389267e-03       3.420799237994e+03 
       2.579009983657e-03       3.548619234495e+03 
       2.691027279241e-03       3.675937908376e+03 
       2.804219914343e-03       3.802582645209e+03 
       2.918484151863e-03       3.928402348745e+03 
       3.033726103536e-03       4.053264490891e+03 
       3.149860926338e-03       4.177053366595e+03 
       3.266812025326e-03       4.299669016115e+03 
       3.384510285802e-03       4.421025083559e+03 
       3.502893349042e-03       4.541047410263e+03 
       3.621904939533e-03       4.659672302970e+03 
       3.741494247176e-03       4.776846775684e+03 
       3.861615364856e-03       4.892524131336e+03 
       3.982226779769e-03       5.006667781083e+03 
       4.103290915627e-03       5.119244662087e+03 
       4.224773722193e-03       5.230229587484e+03 
       4.346644308240e-03       5.339599435944e+03 
       4.468874613990e-03       5.447331905146e+03 
       4.591439119167e-03       5.553415545484e+03 
       4.714314583002e-03       5.657842351179e+03 
       4.837479812791e-03       5.760608652816e+03 
       4.960915457882e-03       5.861709775462e+03 
       5.084603826267e-03       5.961148047746e+03 
       5.208528721218e-03       6.058923788782e+03 
       5.332675295699e-03       6.155041093418e+03 
       5.457029922526e-03       6.249506219139e+03 
       5.581580078455e-03       6.342323663952e+03 
       5.706314240622e-03       6.433504390442e+03 
       5.831221793918e-03       6.523056711600e+03 
       5.956292948043e-03       6.610989482590e+03 
       6.081518663161e-03       6.697312563729e+03 
       6.206890583171e-03       6.782048555154e+03 
       6.332400975749e-03       6.865194218765e+03 
       6.458042678406e-03       6.946767462408e+03 
       6.583809049900e-03       7.026787300291e+03 
       6.709693926418e-03       7.105256783962e+03 
       6.835691582006e-03       7.182201049916e+03 
       6.961796692795e-03       7.257628346932e+03 
       7.088004304625e-03       7.331558965060e+03 
       7.214309803691e-03       7.404003765296e+03 
       7.340708889925e-03       7.474978968214e+03 
       7.467197552800e-03       7.544504338547e+03 
       7.593772049333e-03       7.612591730163e+03 
       7.720428884055e-03       7.679256989665e+03 
       7.847164790751e-03       7.744520128002e+03 
       7.973976715797e-03       7.808396034813e+03 
       8.100861802942e-03       7.870899853136e+03 
       8.227817379383e-03       7.932047614623e+03 
       8.354840943028e-03       7.991854661349e+03 
       8.481930150815e-03       8.050339521328e+03 
       8.609082808003e-03       8.107514815479e+03 
       8.736296858337e-03       8.163396154220e+03 
       8.863570375013e-03       8.217998224670e+03 
       8.990901552363e-03       8.271336689925e+03 
       9.118288698205e-03       8.323424904848e+03 
       9.245730226786e-03       8.374277951920e+03 
       9.373224652288e-03       8.423907952531e+03 
       9.500770582819e-03       8.472329813382e+03 
       9.628366714874e-03       8.519554581018e+03 
       9.756011828214e-03       8.565598049671e+03 
       9.883704781122e-03       8.610473887317e+03 
       1.001144450602e-02       8.654186579441e+03 
       1.013923000543e-02       8.696756509759e+03 
       1.026706034814e-02       8.738191133237e+03 
       1.039493466583e-02       8.778507168097e+03 
       1.052285214971e-02       8.817714156409e+03 
       1.065081204760e-02       8.855820485760e+03 
       1.077881366112e-02       8.892843242780e+03 
       1.090685634309e-02       8.928791264161e+03 
       1.103493949510e-02       8.963662250668e+03 
       1.116306256533e-02       8.997520498854e+03 
       1.129122504642e-02       9.030305095578e+03 
       1.141942647354e-02       9.062076909803e+03 
       1.154766642261e-02       9.092831251662e+03 
       1.167594450861e-02       9.122591529064e+03 
       1.180426038402e-02       9.151363194583e+03 
       1.193261373739e-02       9.179148174339e+03 
       1.206100429197e-02       9.205966437463e+03 
       1.218943180446e-02       9.231831491064e+03 
       1.231789606385e-02       9.256756022126e+03 
       1.244639689035e-02       9.280750229679e+03 
       1.257493413436e-02       9.303832830505e+03 
       1.270350767555e-02       9.326003933480e+03 
       1.283211742200e-02       9.347284398884e+03 
       1.296076330937e-02       9.367688093291e+03 
       1.308944530021e-02       9.387221546257e+03 
       1.321816338322e-02       9.405894792366e+03 
       1.334691757263e-02       9.423724832479e+03 
       1.347570790765e-02       9.440719048795e+03 
       1.360453445188e-02       9.456887277643e+03 
       1.373339729287e-02       9.472242285325e+03 
       1.386229654162e-02       9.486791475451e+03 
       1.399123233221e-02       9.500543783418e+03 
       1.412020482142e-02       9.513509181857e+03 
       1.424921418835e-02       9.525700588493e+03 
       1.437826063419e-02       9.537119822330e+03 
       1.450734438190e-02       9.547780067126e+03 
       1.463646567596e-02       9.557692059782e+03 
       1.476562478220e-02       9.566863776548e+03 
       1.489482198761e-02       9.575303282595e+03 
       1.502405760016e-02       9.583017676427e+03 
       1.515333194869e-02       9.590017175010e+03 
       1.528264538281e-02       9.596313374934e+03 
       1.541199827281e-02       9.601914368401e+03 
       1.554139100960e-02       9.606830709237e+03 
       1.567082400472e-02       9.611067377865e+03 
       1.580029769025e-02       9.614645958545e+03 
       1.592981251888e-02       9.617549583976e+03 
       1.605936896395e-02       9.619817783579e+03 
       1.618896751942e-02       9.621438971707e+03 
       1.631860870005e-02       9.622418984901e+03 
       1.644829304137e-02       9.622795986675e+03 
       1.657802109990e-02       9.622545046012e+03 
       1.670779345319e-02       9.621689058189e+03 
       1.683761070000e-02       9.620240894879e+03 
       1.696747346046e-02       9.618209172704e+03 
       1.709738237625e-02       9.615589995801e+03 
       1.722733811078e-02       9.612400442021e+03 
       1.735734134941e-02       9.608660004044e+03 
       1.748739279968e-02       9.604349045861e+03 
       1.761749319155e-02       9.599498877005e+03 
       1.774764327769e-02       9.594115144520e+03 
       1.787784383371e-02       9.588189922408e+03 
       1.800809565850e-02       9.581744456163e+03 
       1.813839957452e-02       9.574779156670e+03 
       1.826875642813e-02       9.567307730487e+03 
       1.839916708995e-02       9.559331505056e+03 
       1.852963245520e-02       9.550865751801e+03 
       1.866015344411e-02       9.541914678123e+03 
       1.879073100227e-02       9.532476428008e+03 
       1.892136610109e-02       9.522563887680e+03 
       1.905205973821e-02       9.512193777333e+03 
       1.918281293795e-02       9.501369684840e+03 
       1.931362675178e-02       9.490094901794e+03 
       1.944450225878e-02       9.478368668540e+03 
       1.957544056618e-02       9.466215765965e+03 
       1.970644280986e-02       9.453637228035e+03 
       1.983751015490e-02       9.440641008786e+03 
       1.996864379612e-02       9.427223248769e+03 
       2.009984495868e-02       9.413403509667e+03 
       2.023111489866e-02       9.399193105406e+03 
       2.036245490369e-02       9.384589148187e+03 
       2.049386629360e-02       9.369589755075e+03 
       2.062535042105e-02       9.354214392407e+03 
       2.075690867226e-02       9.338464373852e+03 
       2.088854246766e-02       9.322365417377e+03 
       2.102025326266e-02       9.305883432600e+03 
       2.115204254839e-02       9.289046827223e+03 
       2.128391185246e-02       9.271876154712e+03 
       2.141586273978e-02       9.254367595748e+03 
       2.154789681340e-02       9.236514172922e+03 
       2.168001571532e-02       9.218343702282e+03 
       2.181222112739e-02       9.199846370494e+03 
       2.194451477223e-02       9.181035127352e+03 
       2.207689841415e-02       9.161914710785e+03 
       2.220937386012e-02       9.142492163199e+03 
       2.234194296075e-02       9.122765549044e+03 
       2.247460761135e-02       9.102747697200e+03 
       2.260736975293e-02       9.082443231579e+03 
       2.274023137336e-02       9.061857455003e+03 
       2.287319450845e-02       9.041012332997e+03 
       2.300626124311e-02       9.019895439798e+03 
       2.313943371256e-02       8.998510367504e+03 
       2.327271410359e-02       8.976882605098e+03 
       2.340610465576e-02       8.954980091173e+03 
       2.353960766279e-02       8.932848875655e+03 
       2.367322547388e-02       8.910474436812e+03 
       2.380696049508e-02       8.887873381269e+03 
       2.394081519080e-02       8.865031878677e+03 
       2.407479208525e-02       8.841964013061e+03 
       2.420889376398e-02       8.818676541553e+03 
       2.434312287547e-02       8.795187221345e+03 
       2.447748213279e-02       8.771457920128e+03 
       2.461197431524e-02       8.747565699899e+03 
       2.474660227016e-02       8.723457071575e+03 
       2.488136891466e-02       8.699165532889e+03 
       2.501627723756e-02       8.674655778895e+03 
       2.515133030123e-02       8.649984081716e+03 
       2.528653124364e-02       8.625113155080e+03 
       2.542188328041e-02       8.600102452517e+03 
       2.555738970688e-02       8.574906573813e+03 
       2.569305390036e-02       8.549542292684e+03 
       2.582887932238e-02       8.524026138283e+03 
       2.596486952102e-02       8.498337297109e+03 
       2.610102813336e-02       8.472503995077e+03 
       2.623735888800e-02       8.446526583672e+03 
       2.637386560760e-02       8.420405715325e+03 
       2.651055221165e-02       8.394154059496e+03 
       2.664742271918e-02       8.367739958569e+03 
       2.678448125170e-02       8.341224045505e+03 
       2.692173203615e-02       8.314555681025e+03 
       2.705917940801e-02       8.287839462135e+03 
       2.719682781448e-02       8.260890222150e+03 
       2.733468181785e-02       8.233917208725e+03 
       2.747274609888e-02       8.206767702921e+03 
       2.761102546042e-02       8.179534565311e+03 
       2.774952483110e-02       8.152197721768e+03 
       2.788824926915e-02       8.124771426045e+03 
       2.802720396640e-02       8.097255899336e+03 
       2.816639425243e-02       8.069636802781e+03 
       2.830582559887e-02       8.041941773559e+03 
       2.844550362381e-02       8.014142818636e+03 
       2.858543409651e-02       7.986268629968e+03 
       2.872562294215e-02       7.958335060128e+03 
       2.886607624688e-02       7.930308469180e+03 
       2.900680026301e-02       7.902214713021e+03 
       2.914780141443e-02       7.874054909582e+03 
       2.928908630222e-02       7.845808298163e+03 
       2.943066171057e-02       7.817519064475e+03 
       2.957253461281e-02       7.789185336455e+03 
       2.971471217781e-02       7.760776711594e+03 
       2.985720177661e-02       7.732314821309e+03 
       3.000001098928e-02       7.703786476007e+03 
       3.014314761216e-02       7.675242485415e+03 
       3.028661966532e-02       7.646630646373e+03 
       3.043043540043e-02       7.617985757268e+03 
       3.057460330886e-02       7.589312291952e+03 
       3.071913213029e-02       7.560586629491e+03 
       3.086403086154e-02       7.531833225980e+03 
       3.100930876590e-02       7.503035765451e+03 
       3.115497538288e-02       7.474223711640e+03 
       3.130104053831e-02       7.445385941250e+03 
       3.144751435504e-02       7.416499952501e+03 
       3.159440726399e-02       7.387612918268e+03 
       3.174173001588e-02       7.358710517497e+03 
       3.188949369336e-02       7.329776591093e+03 
       3.203770972381e-02       7.300840138253e+03 
       3.218638989273e-02       7.271873432887e+03 
       3.233554635779e-02       7.242904522067e+03 
       3.248519166358e-02       7.213911984998e+03 
       3.263533875702e-02       7.184903127553e+03 
       3.278600100365e-02       7.155908977488e+03 
       3.293719220470e-02       7.126906584893e+03 
       3.308892661497e-02       7.097845788064e+03 
       3.324121896173e-02       7.068861382335e+03 
       3.339408446455e-02       7.039856058735e+03 
       3.354753885620e-02       7.010819335738e+03 
       3.370159840461e-02       6.981809754005e+03 
       3.385627993613e-02       6.952804257736e+03 
       3.401160085989e-02       6.923795172621e+03 
       3.416757919367e-02       6.894788275499e+03 
       3.432423359106e-02       6.865796953424e+03 
       3.448158337027e-02       6.836800752756e+03 
       3.463964854446e-02       6.807834585496e+03 
       3.479844985392e-02       6.778856907193e+03 
       3.495800880009e-02       6.749917511623e+03 
       3.511834768149e-02       6.720965406765e+03 
       3.527948963194e-02       6.692037709799e+03 
       3.544145866097e-02       6.663109839689e+03 
       3.560427969670e-02       6.634203794032e+03 
       3.576797863144e-02       6.605306807079e+03 
       3.593258237003e-02       6.576429620527e+03 
       3.609811888132e-02       6.547558298596e+03 
       3.626461725287e-02       6.518699914918e+03 
       3.643210774925e-02       6.489860107861e+03 
       3.660062187413e-02       6.461042580710e+03 
       3.677019243648e-02       6.432230589609e+03 
       3.694085362129e-02       6.403454621804e+03 
       3.711264106499e-02       6.374668457977e+03 
       3.728559193620e-02       6.345908324488e+03 
       3.745974502206e-02       6.317173331778e+03 
       3.763514082071e-02       6.288441959836e+03 
       3.781182164042e-02       6.259722643225e+03 
       3.798983170592e-02       6.231008584415e+03 
       3.816921727262e-02       6.202312569512e+03 
       3.835002674943e-02       6.173653714884e+03 
       3.853231083085e-02       6.144994787829e+03 
       3.871612263935e-02       6.116329572211e+03 
       3.890151787882e-02       6.087667677459e+03 
       3.908855500032e-02       6.059012214817e+03 
       3.927729538116e-02       6.030383460367e+03 
       3.946780351872e-02       6.001760727450e+03 
       3.966014724038e-02       5.973125824534e+03 
       3.985439793126e-02       5.944497525111e+03 
       4.005063078161e-02       5.915890407350e+03 
       4.024892505572e-02       5.887249732449e+03 
       4.044936438488e-02       5.858608279320e+03 
       4.065203708680e-02       5.829965134194e+03 
       4.085703651443e-02       5.801346549650e+03 
       4.106446143743e-02       5.772649560614e+03 
       4.127441646009e-02       5.743996628104e+03 
       4.148701247972e-02       5.715319763883e+03 
       4.170236719040e-02       5.686612443885e+03 
       4.192060563749e-02       5.657857434515e+03 
       4.214186082903e-02       5.629103790489e+03 
       4.236627441106e-02       5.600303498491e+03 
       4.259399741506e-02       5.571479345917e+03 
       4.282519108669e-02       5.542601804266e+03 
       4.306002780655e-02       5.513686376928e+03 
       4.329869211537e-02       5.484727158603e+03 
       4.354138185778e-02       5.455699269940e+03 
       4.378830946139e-02       5.426621092216e+03 
       4.403970337039e-02       5.397468271931e+03 
       4.429580965633e-02       5.368239507075e+03 
       4.455689383229e-02       5.338924390233e+03 
       4.482324290168e-02       5.309526833659e+03 
       4.509516767813e-02       5.280022147652e+03 
       4.537300541973e-02       5.250413371595e+03 
       4.565712282897e-02       5.220685357182e+03 
       4.594791947965e-02       5.190830440354e+03 
       4.624583174372e-02       5.160843662425e+03 
       4.655133730601e-02       5.130690954556e+03 
       4.686496037257e-02       5.100377746722e+03 
       4.718727770071e-02       5.069875601284e+03 
       4.751892560617e-02       5.039197331278e+03 
       4.786060813742e-02       5.008278040858e+03 
       4.821310664949e-02       4.977130963335e+03 
       4.857729106385e-02       4.945728459271e+03 
       4.895413316805e-02       4.914027561305e+03 
       4.934472239468e-02       4.882016184449e+03 
       4.975028462729e-02       4.849675987264e+03 
       5.017220471915e-02       4.816938221797e+03 
       5.061205358594e-02       4.783792547518e+03 
       5.107162095769e-02       4.750166937960e+03 
       5.155295516037e-02       4.716020519589e+03 
       5.205841165891e-02       4.681281157909e+03 
       5.259071254830e-02       4.645890186561e+03 
       5.315301974228e-02       4.609740515041e+03 
       5.374902528760e-02       4.572735036225e+03 
       5.438306300969e-02       4.534736025757e+03 
       5.506024650216e-02       4.495595793067e+03 
       5.578663912166e-02       4.455096750964e+03 
       5.656946171544e-02       4.412981887996e+03 
       5.741734239937e-02       4.368953612694e+03 
       5.834060804680e-02       4.322527636671e+03 
       5.935160590653e-02       4.273222056636e+03 
       6.046502007103e-02       4.220253540145e+03 
       6.169810212738e-02       4.162618204587e+03 
