# dimensionless total lensed [l(l+1)/2pi] C_l's
# for l=2 to 2500, i.e. number of multipoles equal to 2499
#
# -> if you prefer output in CAMB/HealPix/LensPix units/order, set 'format' to 'camb' in input file
# -> if you don't want to see such a header, set 'headers' to 'no' in input file
# -> for CMB lensing (phi), these are C_l^phi-phi for the lensing potential.
#    Remember the conversion factors:
#    C_l^dd (deflection) = l(l+1) C_l^phi-phi
#    C_l^gg (shear/convergence) = 1/4 (l(l+1))^2 C_l^phi-phi
#
# 1:l     2:TT                     3:EE                     4:TE                     5:BB                     6:phiphi                 7:TPhi                   8:Ephi               
    2       1.494147534640e-10       7.333902479169e-15       4.829543114475e-13       2.490450097239e-19       8.648625973433e-09       4.835409774953e-10      -2.520588620408e-12 
    3       1.408563467633e-10       1.242343229831e-14       6.087089314125e-13       4.983194849720e-19       5.366301967230e-09       3.445555724224e-10      -2.216159954736e-12 
    4       1.324218080039e-10       1.449816560016e-14       6.298110011003e-13       8.310343071569e-19       3.733768315789e-09       2.619885296616e-10      -1.767362368249e-12 
    5       1.257406215353e-10       1.339791022794e-14       5.897500864981e-13       1.247473223355e-18       2.784989730802e-09       2.077106249605e-10      -1.311176349850e-12 
    6       1.208166813616e-10       1.032787419389e-14       5.187524369284e-13       1.747972546044e-18       2.172486893994e-09       1.695211272147e-10      -8.951092621481e-13 
    7       1.173765504096e-10       6.837462326459e-15       4.373617223339e-13       2.332909989865e-18       1.750616536486e-09       1.414085211209e-10      -5.436260478238e-13 
    8       1.150669042627e-10       4.037173061571e-15       3.580459385705e-13       3.002692302379e-18       1.446256406297e-09       1.199647453836e-10      -2.675604740446e-13 
    9       1.136555826173e-10       2.335359435329e-15       2.881627317732e-13       3.757742178224e-18       1.218031997212e-09       1.031187141543e-10      -6.849611220713e-14 
   10       1.129354445135e-10       1.576010953666e-15       2.317634768699e-13       4.598484972979e-18       1.041342171026e-09       8.963311592711e-11       5.898738854944e-14 
   11       1.127545901636e-10       1.353860563876e-15       1.905398302124e-13       5.525335738958e-18       8.758615197586e-10       7.897869382822e-11       1.245585577404e-13 
   12       1.130354538061e-10       1.297456795478e-15       1.641406129398e-13       6.538687089826e-18       7.650392858034e-10       6.989647385523e-11       1.430704062061e-13 
   13       1.136245260110e-10       1.209581261130e-15       1.507268751299e-13       7.638898365019e-18       6.741057388978e-10       6.241689481915e-11       1.282219437051e-13 
   14       1.144305488984e-10       1.063421040660e-15       1.476684102656e-13       8.826286509909e-18       5.984737938529e-10       5.593541357772e-11       9.303747412652e-14 
   15       1.154654049962e-10       9.196473593407e-16       1.519368089685e-13       1.010111901565e-17       5.348349194986e-10       5.051559744867e-11       4.972045410711e-14 
   16       1.167117330976e-10       8.396367310993e-16       1.604998504097e-13       1.146360917680e-17       4.807468597379e-10       4.594721737774e-11       7.386163601472e-15 
   17       1.180425349437e-10       8.402799480781e-16       1.708987615015e-13       1.291391382835e-17       4.343622302454e-10       4.201790323194e-11      -2.764595146595e-14 
   18       1.194985472212e-10       8.937319950831e-16       1.812500929311e-13       1.445213240681e-17       3.941135310430e-10       3.849747965705e-11      -5.189847070928e-14 
   19       1.210876651230e-10       9.674971363130e-16       1.906208707231e-13       1.607831578817e-17       3.593611538678e-10       3.536934948691e-11      -6.450265648752e-14 
   20       1.227323254653e-10       1.028495680314e-15       1.983376041754e-13       1.779245812797e-17       3.287602088269e-10       3.261554855558e-11      -6.628705512460e-14 
   21       1.244479231925e-10       1.079978926858e-15       2.044652391312e-13       1.959452184410e-17       3.018280025252e-10       3.019620005121e-11      -5.942459005907e-14 
   22       1.262449257253e-10       1.140310027325e-15       2.094167400048e-13       2.148442786435e-17       2.779189461520e-10       2.802238417831e-11      -4.731131311313e-14 
   23       1.281079531858e-10       1.228735156337e-15       2.136594669798e-13       2.346208531229e-17       2.567030616384e-10       2.605319034205e-11      -3.291306647895e-14 
   24       1.299961991342e-10       1.363486684079e-15       2.177437779950e-13       2.552738170918e-17       2.376884455546e-10       2.424506843509e-11      -1.933524772270e-14 
   25       1.319289030856e-10       1.544501757271e-15       2.221302404379e-13       2.768021757286e-17       2.206507448225e-10       2.260820237062e-11      -8.414274700949e-15 
   26       1.339244851168e-10       1.764300722729e-15       2.272109099226e-13       2.992049442884e-17       2.052809872580e-10       2.115063153448e-11      -1.468275272705e-15 
   27       1.359666820789e-10       2.016541128543e-15       2.329990835988e-13       3.224814512290e-17       1.913942470177e-10       1.984720619562e-11       1.351466253570e-15 
   28       1.380210252194e-10       2.295068302238e-15       2.393171250186e-13       3.466312616783e-17       1.787504833645e-10       1.865435499523e-11       4.779983998296e-16 
   29       1.400960387631e-10       2.599499990297e-15       2.458560858172e-13       3.716545263085e-17       1.672847259504e-10       1.756373933706e-11      -3.287667741123e-15 
   30       1.422035284481e-10       2.931155472910e-15       2.521711519187e-13       3.975517865469e-17       1.568733995918e-10       1.656774005789e-11      -8.744013475683e-15 
   31       1.443448433255e-10       3.290748956372e-15       2.577420496734e-13       4.243239736349e-17       1.473035877238e-10       1.565015755658e-11      -1.447641950614e-14 
   32       1.465227449980e-10       3.676226626824e-15       2.622058385853e-13       4.519726410122e-17       1.385257088829e-10       1.480566715222e-11      -1.960403260948e-14 
   33       1.487312574274e-10       4.084020495317e-15       2.652011079836e-13       4.804999024276e-17       1.304776113576e-10       1.402590274255e-11      -2.328546682066e-14 
   34       1.509582984821e-10       4.511046147822e-15       2.663811972872e-13       5.099083701148e-17       1.230465427771e-10       1.329798162089e-11      -2.475069320422e-14 
   35       1.532107751549e-10       4.959952728005e-15       2.656841481359e-13       5.402009713181e-17       1.161943443154e-10       1.261995235823e-11      -2.411915569467e-14 
   36       1.554966231310e-10       5.435776648711e-15       2.631595736128e-13       5.713811459155e-17       1.098658799757e-10       1.198981069851e-11      -2.187925724456e-14 
   37       1.578183274397e-10       5.943730224430e-15       2.588970968921e-13       6.034526976827e-17       1.039785966683e-10       1.140284469844e-11      -1.862306748508e-14 
   38       1.601760530583e-10       6.486093842236e-15       2.530133515220e-13       6.364189651873e-17       9.851721195404e-11       1.085799532895e-11      -1.483235115911e-14 
   39       1.625643112941e-10       7.064341719367e-15       2.456659340892e-13       6.702834295529e-17       9.346434594176e-11       1.035302747389e-11      -1.103711711023e-14 
   40       1.649702246870e-10       7.679973460724e-15       2.370606918989e-13       7.050499669040e-17       8.877172212956e-11       9.882467976696e-12      -7.882047628916e-15 
   41       1.673794116140e-10       8.334236337993e-15       2.273929411280e-13       7.407224673484e-17       8.437697556651e-11       9.439545213937e-12      -5.964379743237e-15 
   42       1.697976275737e-10       9.027184771761e-15       2.166410040117e-13       7.773034858105e-17       8.026713598348e-11       9.023441489212e-12      -5.267050609199e-15 
   43       1.722349900963e-10       9.758313714967e-15       2.047104345052e-13       8.147951918664e-17       7.643127488147e-11       8.633929415019e-12      -5.552943166158e-15 
   44       1.746997587253e-10       1.052679010696e-14       1.914886881408e-13       8.531997324796e-17       7.284145697461e-11       8.269230063202e-12      -6.513694278266e-15 
   45       1.771976398018e-10       1.133175998287e-14       1.768498599972e-13       8.925188642947e-17       6.946271308334e-11       7.926732529925e-12      -7.812342109832e-15 
   46       1.797300380381e-10       1.217342552255e-14       1.606736513768e-13       9.327527296758e-17       6.628970436603e-11       7.605710562295e-12      -9.237244480666e-15 
   47       1.822948599017e-10       1.305225662243e-14       1.428298619215e-13       9.739007073558e-17       6.331871643736e-11       7.305200529070e-12      -1.058640014238e-14 
   48       1.848866482670e-10       1.396869133797e-14       1.231719161990e-13       1.015961719409e-16       6.053660106336e-11       7.023147419028e-12      -1.162242119372e-14 
   49       1.874963083964e-10       1.492313508029e-14       1.015359113562e-13       1.058934205979e-16       5.792007470885e-11       6.756325745113e-12      -1.207068119204e-14 
   50       1.901146790680e-10       1.591592007771e-14       7.778616584459e-14       1.102816066130e-16       5.544272749269e-11       6.501298634378e-12      -1.170698151808e-14 
   51       1.927450244400e-10       1.694717265149e-14       5.196865063715e-14       1.147604520122e-16       5.309992028933e-11       6.257785508933e-12      -1.065290008867e-14 
   52       1.953934593039e-10       1.801690852503e-14       2.419755899025e-14       1.193296166064e-16       5.088943316029e-11       6.026071801900e-12      -9.157410610563e-15 
   53       1.980653094338e-10       1.912506680047e-14      -5.386348019647e-15       1.239886984290e-16       4.880401502694e-11       5.806021143654e-12      -7.516675891238e-15 
   54       2.007650185154e-10       2.027150728553e-14      -3.661450555758e-14       1.287372310489e-16       4.683104506068e-11       5.597045121775e-12      -6.076408574027e-15 
   55       2.034959087715e-10       2.145606618773e-14      -6.933122935060e-14       1.335747353208e-16       4.495638175979e-11       5.398345890566e-12      -5.150600976872e-15 
   56       2.062596064151e-10       2.267874552298e-14      -1.035304355108e-13       1.385008958472e-16       4.317780563591e-11       5.209783854124e-12      -4.748664150332e-15 
   57       2.090563104465e-10       2.393956607783e-14      -1.392507200079e-13       1.435154236466e-16       4.149432287773e-11       5.031172566555e-12      -4.784639316754e-15 
   58       2.118848298327e-10       2.523851277408e-14      -1.765368028126e-13       1.486180050045e-16       3.990209861225e-11       4.862005584945e-12      -5.154011825470e-15 
   59       2.147424847364e-10       2.657553426960e-14      -2.154399252140e-13       1.538083009070e-16       3.839428145160e-11       4.701436859817e-12      -5.732813541306e-15 
   60       2.176250077463e-10       2.795054255921e-14      -2.560182471386e-13       1.590859464748e-16       3.696082803981e-11       4.548261125587e-12      -6.376725233093e-15 
   61       2.205282122484e-10       2.936334123394e-14      -2.983254390958e-13       1.644506283745e-16       3.559129123010e-11       4.401245203855e-12      -6.951176397585e-15 
   62       2.234536585940e-10       3.081339234454e-14      -3.423725668855e-13       1.699023386355e-16       3.428431286907e-11       4.260253175073e-12      -7.431570429073e-15 
   63       2.264040902821e-10       3.229999626153e-14      -3.881583176176e-13       1.754411770603e-16       3.303996012202e-11       4.125340115634e-12      -7.824065618996e-15 
   64       2.293817371922e-10       3.382235578906e-14      -4.356800724326e-13       1.810672801450e-16       3.185687005766e-11       3.996415163656e-12      -8.136647076681e-15 
   65       2.323882728831e-10       3.537957350212e-14      -4.849339292454e-13       1.867808229879e-16       3.073216822868e-11       3.873233043643e-12      -8.379212643042e-15 
   66       2.354247718932e-10       3.697064908379e-14      -5.359147254876e-13       1.925820211980e-16       2.966138725226e-11       3.755385591136e-12      -8.563658804270e-15 
   67       2.384916670401e-10       3.859447666246e-14      -5.886160608505e-13       1.984711328026e-16       2.863838539063e-11       3.642293277368e-12      -8.703966605529e-15 
   68       2.415891248255e-10       4.024996284215e-14      -6.430282797627e-13       2.044484482137e-16       2.765698648622e-11       3.533373723626e-12      -8.814172361475e-15 
   69       2.447183554298e-10       4.193641451735e-14      -6.991318932763e-13       2.105142534971e-16       2.671646763065e-11       3.428605839652e-12      -8.901610265540e-15 
   70       2.478804926677e-10       4.365322521723e-14      -7.569028590137e-13       2.166688630547e-16       2.581704228551e-11       3.328065294270e-12      -8.972448603387e-15 
   71       2.510761679358e-10       4.539976178179e-14      -8.163144745884e-13       2.229126324820e-16       2.495820058761e-11       3.231753761751e-12      -9.033715053656e-15 
   72       2.543054782050e-10       4.717536478590e-14      -8.773373481669e-13       2.292459601717e-16       2.413867195393e-11       3.139594973061e-12      -9.093328504399e-15 
   73       2.575679540137e-10       4.897934896331e-14      -9.399393690308e-13       2.356692889160e-16       2.335638768657e-11       3.051430767109e-12      -9.160130869498e-15 
   74       2.608625274605e-10       5.081100363062e-14      -1.004085678139e-12       2.421831075098e-16       2.260844357771e-11       2.967017141991e-12      -9.243918905100e-15 
   75       2.641875001974e-10       5.266959311134e-14      -1.069738638691e-12       2.487879523533e-16       2.189106251455e-11       2.886020306234e-12      -9.355476026039e-15 
   76       2.675412068140e-10       5.455420322510e-14      -1.136857275156e-12       2.554843109498e-16       2.120053199091e-11       2.808101282733e-12      -9.503302134178e-15 
   77       2.709242154035e-10       5.646324749988e-14      -1.205395537354e-12       2.622723085401e-16       2.053629667547e-11       2.733196260720e-12      -9.683044315184e-15 
   78       2.743374719945e-10       5.839487126718e-14      -1.275303664867e-12       2.691519669708e-16       1.989836446910e-11       2.661280430757e-12      -9.886187627825e-15 
   79       2.777816232986e-10       6.034709492029e-14      -1.346528650804e-12       2.761232973281e-16       1.928636450575e-11       2.592281869020e-12      -1.010315079518e-14 
   80       2.812569989626e-10       6.231781118173e-14      -1.419014201464e-12       2.831862995281e-16       1.869952974865e-11       2.526079404384e-12      -1.032325031115e-14 
   81       2.847635938214e-10       6.430478237068e-14      -1.492700695997e-12       2.903409619086e-16       1.813667958653e-11       2.462500485517e-12      -1.053466454691e-14 
   82       2.883010501499e-10       6.630563767047e-14      -1.567525146066e-12       2.975872608201e-16       1.759620242979e-11       2.401319047973e-12      -1.072439785742e-14 
   83       2.918686399160e-10       6.831787039601e-14      -1.643421155514e-12       3.049251602166e-16       1.707603830673e-11       2.342253381273e-12      -1.087824468791e-14 
   84       2.954656402140e-10       7.033908261542e-14      -1.720325668268e-12       3.123546265593e-16       1.657417952471e-11       2.285034594441e-12      -1.098371298078e-14 
   85       2.990925699530e-10       7.236777159498e-14      -1.798200585751e-12       3.198756772610e-16       1.609030614037e-11       2.229629725702e-12      -1.103942985964e-14 
   86       3.027501265992e-10       7.440266932629e-14      -1.877014675883e-12       3.274883395604e-16       1.562439096735e-11       2.176051881030e-12      -1.104723664925e-14 
   87       3.064388002478e-10       7.644250816767e-14      -1.956737176138e-12       3.351926357744e-16       1.517619704886e-11       2.124291991834e-12      -1.100938185000e-14 
   88       3.101588624837e-10       7.848602226885e-14      -2.037337867287e-12       3.429885831469e-16       1.474526896089e-11       2.074317868578e-12      -1.092853498052e-14 
   89       3.139103552417e-10       8.053194899560e-14      -2.118787147156e-12       3.508761936968e-16       1.433092411538e-11       2.026073254403e-12      -1.080780042034e-14 
   90       3.176930796676e-10       8.257903035442e-14      -2.201056104372e-12       3.588554740668e-16       1.393224406341e-11       1.979476878737e-12      -1.065073125249e-14 
   91       3.215065849782e-10       8.462601441721e-14      -2.284116592116e-12       3.669264253717e-16       1.354806579833e-11       1.934421510925e-12      -1.046134310611e-14 
   92       3.253501573221e-10       8.667165674593e-14      -2.367941301873e-12       3.750890430471e-16       1.317697305899e-11       1.890773013839e-12      -1.024412799915e-14 
   93       3.292230752696e-10       8.871461313593e-14      -2.452496458103e-12       3.833434327564e-16       1.281763239728e-11       1.848404230586e-12      -1.000372080163e-14 
   94       3.331254444326e-10       9.075309629881e-14      -2.537718485231e-12       3.916901783830e-16       1.246987808880e-11       1.807304530181e-12      -9.743811176251e-15 
   95       3.370574683599e-10       9.278516993845e-14      -2.623533951400e-12       4.001300293617e-16       1.213377507251e-11       1.767485064449e-12      -9.468092825810e-15 
   96       3.410191857135e-10       9.480885276527e-14      -2.709866607694e-12       4.086637909736e-16       1.180928481398e-11       1.728944940992e-12      -9.180605244042e-15 
   97       3.450104627890e-10       9.682211842905e-14      -2.796637360601e-12       4.172923257874e-16       1.149626134116e-11       1.691670754963e-12      -8.885742789851e-15 
   98       3.490309860360e-10       9.882289545176e-14      -2.883764244468e-12       4.260165551013e-16       1.119444727998e-11       1.655636120826e-12      -8.588263761514e-15 
   99       3.530802545791e-10       1.008090671603e-13      -2.971162393963e-12       4.348374603843e-16       1.090346989013e-11       1.620801204125e-12      -8.293299470890e-15 
  100       3.571575727378e-10       1.027784716196e-13      -3.058744016537e-12       4.437560847180e-16       1.062283710074e-11       1.587112253254e-12      -8.006363317631e-15 
  101       3.612620425475e-10       1.047289015648e-13      -3.146418364876e-12       4.527735342380e-16       1.035193354606e-11       1.554501131220e-12      -7.733359863391e-15 
  102       3.653925562800e-10       1.066581043348e-13      -3.234091709370e-12       4.618909795757e-16       1.009001660117e-11       1.522884847409e-12      -7.480593906037e-15 
  103       3.695477889639e-10       1.085637818047e-13      -3.321667310563e-12       4.711096572996e-16       9.836212417699e-12       1.492165089357e-12      -7.254779553857e-15 
  104       3.737264791114e-10       1.104436991559e-13      -3.409051693032e-12       4.804307407527e-16       9.589714057851e-12       1.462250770197e-12      -7.061489412167e-15 
  105       3.779283301983e-10       1.122960280645e-13      -3.496174491524e-12       4.898549295869e-16       9.350414917196e-12       1.433130148336e-12      -6.900244012019e-15 
  106       3.821532175840e-10       1.141190499636e-13      -3.582971246877e-12       4.993828072099e-16       9.118353875822e-12       1.404807622533e-12      -6.768772863733e-15 
  107       3.864009069190e-10       1.159110524604e-13      -3.669377385215e-12       5.090149664446e-16       8.893519118519e-12       1.377281373468e-12      -6.664507138499e-15 
