# dimensionless total lensed [l(l+1)/2pi] C_l's
# for l=2 to 2500, i.e. number of multipoles equal to 2499
#
# -> if you prefer output in CAMB/HealPix/LensPix units/order, set 'format' to 'camb' in input file
# -> if you don't want to see such a header, set 'headers' to 'no' in input file
# -> for CMB lensing (phi), these are C_l^phi-phi for the lensing potential.
#    Remember the conversion factors:
#    C_l^dd (deflection) = l(l+1) C_l^phi-phi
#    C_l^gg (shear/convergence) = 1/4 (l(l+1))^2 C_l^phi-phi
#
# 1:l     2:TT                     3:EE                     4:TE                     5:BB                     6:phiphi                 7:TPhi                   8:Ephi               
    2       1.495442756367e-10       7.309265058189e-15       4.815171146230e-13       2.388859442284e-19       8.628903627683e-09       4.854772022720e-10      -2.515854151939e-12 
    3       1.409375666059e-10       1.238839452052e-14       6.068719460547e-13       4.780040948961e-19       5.411291735246e-09       3.469573537020e-10      -2.211507031242e-12 
    4       1.324638938237e-10       1.446592354117e-14       6.277975858903e-13       7.971813288700e-19       3.776588568834e-09       2.639785239627e-10      -1.764116066965e-12 
    5       1.257528921068e-10       1.337973190800e-14       5.879550143700e-13       1.196704812231e-18       2.821984242015e-09       2.093815914546e-10      -1.309529286420e-12 
    6       1.208087559460e-10       1.032478440832e-14       5.173987896608e-13       1.676914935825e-18       2.205212287221e-09       1.709428816912e-10      -8.948468928872e-13 
    7       1.173342229414e-10       6.843838593568e-15       4.365330659166e-13       2.238194032621e-18       1.778233640278e-09       1.425663810944e-10      -5.443860561686e-13 
    8       1.150094184664e-10       4.045255169522e-15       3.576614995755e-13       2.880953875455e-18       1.468351542358e-09       1.208855530815e-10      -2.689334591264e-13 
    9       1.135899960903e-10       2.339962949628e-15       2.880577371344e-13       3.605622449527e-18       1.235838575178e-09       1.038809856917e-10      -7.009986558338e-14 
   10       1.128612981958e-10       1.576066389111e-15       2.317780346606e-13       4.412630521148e-18       1.056623414441e-09       9.029295140769e-11       5.745597685479e-14 
   11       1.126830754903e-10       1.351208672072e-15       1.905546765818e-13       5.302398530287e-18       8.886898896890e-10       7.950621178067e-11       1.233291871386e-13 
   12       1.129466844201e-10       1.294588308871e-15       1.640599028963e-13       6.275324318985e-18       7.765278522661e-10       7.028429458526e-11       1.421600820891e-13 
   13       1.135320852628e-10       1.208007395824e-15       1.505250305021e-13       7.331772171489e-18       6.844563352956e-10       6.274649399117e-11       1.277329334491e-13 
   14       1.143407885564e-10       1.063264023402e-15       1.473981480878e-13       8.472063586384e-18       6.078507046051e-10       5.620929936211e-11       9.279533142168e-14 
   15       1.153792155340e-10       9.202377692633e-16       1.516646925899e-13       9.696470128354e-18       5.433693972544e-10       5.074768442748e-11       4.959311795063e-14 
   16       1.166084644782e-10       8.404031683730e-16       1.602810272141e-13       1.100520862047e-17       4.885455326619e-10       4.611883495150e-11       7.232456804088e-15 
   17       1.179455035115e-10       8.411741195569e-16       1.707677999976e-13       1.239843884063e-17       4.415155594476e-10       4.212237770329e-11      -2.792921257742e-14 
   18       1.193943882554e-10       8.950457184376e-16       1.812583728912e-13       1.387626255577e-17       4.006946026298e-10       3.857272549015e-11      -5.233422222198e-14 
   19       1.209630530869e-10       9.693348381019e-16       1.907730516465e-13       1.543873242949e-17       3.654375321608e-10       3.544034583620e-11      -6.510245828653e-14 
   20       1.225956274729e-10       1.030562366070e-15       1.985685594204e-13       1.708584376724e-17       3.343837620681e-10       3.267209282566e-11      -6.706958349320e-14 
   21       1.243040241329e-10       1.081655432761e-15       2.047244341878e-13       1.881755973142e-17       3.070458393994e-10       3.022369207628e-11      -6.038517313555e-14 
   22       1.260879297012e-10       1.140726892714e-15       2.096934230237e-13       2.063380147831e-17       2.827706837454e-10       2.801369914725e-11      -4.840846048151e-14 
   23       1.279365609801e-10       1.227172464761e-15       2.139233707778e-13       2.253447813144e-17       2.612248149276e-10       2.601109519166e-11      -3.407762745654e-14 
   24       1.298178482088e-10       1.359591106553e-15       2.179345826111e-13       2.451947687199e-17       2.419102434302e-10       2.418236203068e-11      -2.047694716472e-14 
   25       1.317486505277e-10       1.538392481637e-15       2.222217810365e-13       2.658869788565e-17       2.246000766099e-10       2.253681862332e-11      -9.447605723231e-15 
   26       1.337412784672e-10       1.756560509710e-15       2.272302570974e-13       2.874204223675e-17       2.089813629735e-10       2.107677790437e-11      -2.331875960225e-15 
   27       1.357768914271e-10       2.007678376911e-15       2.329801935635e-13       3.097944249278e-17       1.948668561611e-10       1.976937854424e-11       6.620965902358e-16 
   28       1.378198760510e-10       2.285336733607e-15       2.392874081519e-13       3.330085498340e-17       1.820132726860e-10       1.856388389147e-11      -9.525040655541e-17 
   29       1.398799629269e-10       2.589051751051e-15       2.458479847373e-13       3.570629508024e-17       1.703550526044e-10       1.745581120743e-11      -3.801163088688e-15 
   30       1.419713799330e-10       2.920067139571e-15       2.522262692102e-13       3.819581747545e-17       1.597671054502e-10       1.644631521141e-11      -9.226631307968e-15 
   31       1.440979697945e-10       3.279007006073e-15       2.579084725852e-13       4.076951609126e-17       1.500335705777e-10       1.552722351057e-11      -1.492867588366e-14 
   32       1.462626232715e-10       3.663758659205e-15       2.625223743844e-13       4.342754764812e-17       1.411042594967e-10       1.468927068665e-11      -2.002927756937e-14 
   33       1.484586498894e-10       4.070695915549e-15       2.656891979938e-13       4.617012534035e-17       1.329161021704e-10       1.391502532373e-11      -2.370101063610e-14 
   34       1.506731848620e-10       4.496668838775e-15       2.670412785349e-13       4.899751259224e-17       1.253545993840e-10       1.318311845507e-11      -2.518539166969e-14 
   35       1.529128556997e-10       4.944269789377e-15       2.664970766796e-13       5.191000463896e-17       1.183811097802e-10       1.249405694384e-11      -2.459200034513e-14 
   36       1.551854400966e-10       5.418475902658e-15       2.640842876266e-13       5.490794840651e-17       1.119397487182e-10       1.185257231467e-11      -2.238998590065e-14 
   37       1.574933302154e-10       5.924454851146e-15       2.598749169049e-13       5.799172749677e-17       1.059467521148e-10       1.126048263778e-11      -1.915230960282e-14 
   38       1.598369927668e-10       6.464531523316e-15       2.540004557044e-13       6.116167858640e-17       1.003866718505e-10       1.071663573920e-11      -1.535845688480e-14 
   39       1.622114205669e-10       7.040265336277e-15       2.466473324213e-13       6.441815271613e-17       9.524189669757e-11       1.021639851289e-11      -1.154171529291e-14 
   40       1.646043172124e-10       7.653263753027e-15       2.380572416474e-13       6.776154075055e-17       9.046338974616e-11       9.751258476159e-12      -8.351245647360e-15 
   41       1.670017359513e-10       8.304886792429e-15       2.284586182531e-13       7.119223492889e-17       8.598778028298e-11       9.311538008922e-12      -6.389561586617e-15 
   42       1.694088728093e-10       8.995242670833e-15       2.178260368416e-13       7.471049271289e-17       8.180192144158e-11       8.896376195397e-12      -5.644107870096e-15 
   43       1.718348738805e-10       9.723866747691e-15       2.060482257369e-13       7.831653264345e-17       7.789473394113e-11       8.506452758741e-12      -5.882706206494e-15 
   44       1.742868323716e-10       1.048997060348e-14       1.929917325085e-13       8.201057094878e-17       7.423783373392e-11       8.141119171469e-12      -6.802856888960e-15 
   45       1.767694479247e-10       1.129272547727e-14       1.785110599874e-13       8.579278440390e-17       7.079567705510e-11       7.798842009200e-12      -8.072930430735e-15 
   46       1.792844943953e-10       1.213225950116e-14       1.624863346756e-13       8.966318669778e-17       6.756285904324e-11       7.478960135485e-12      -9.481079041826e-15 
   47       1.818307517223e-10       1.300892548517e-14       1.447942672606e-13       9.362171436176e-17       6.453562231044e-11       7.180258621570e-12      -1.082315503719e-14 
   48       1.844038161783e-10       1.392302192508e-14       1.252965947312e-13       9.766825777998e-17       6.170060658216e-11       6.900376878846e-12      -1.185902560008e-14 
   49       1.869958362944e-10       1.487479097984e-14       1.038392056945e-13       1.018026586387e-16       5.903413454613e-11       6.635726587933e-12      -1.231068531803e-14 
   50       1.895987270523e-10       1.586442734227e-14       8.029469763255e-14       1.060247039079e-16       5.650934473773e-11       6.382532095083e-12      -1.195045791393e-14 
   51       1.922154536528e-10       1.689211238223e-14       5.470569625756e-14       1.103341117771e-16       5.412152955004e-11       6.140474932750e-12      -1.089820490984e-14 
   52       1.948513541294e-10       1.795798577504e-14       2.717892663252e-14       1.147305374927e-16       5.186844048629e-11       5.909896698327e-12      -9.401528297992e-15 
   53       1.975108307682e-10       1.906213394407e-14      -2.153677232536e-15       1.192135738434e-16       4.974270554396e-11       5.690734494196e-12      -7.755028534250e-15 
   54       2.001972497166e-10       2.020458855072e-14      -3.313380320739e-14       1.237827484458e-16       4.773148433602e-11       5.482491678807e-12      -6.302656565571e-15 
   55       2.029129835933e-10       2.138534215304e-14      -6.561526068842e-14       1.284375759553e-16       4.582038690902e-11       5.284467488034e-12      -5.357169813969e-15 
   56       2.056597817022e-10       2.260440319589e-14      -9.959335790536e-14       1.331777361019e-16       4.400716030311e-11       5.096579704802e-12      -4.929680860697e-15 
   57       2.084383159439e-10       2.386175203665e-14      -1.351056168165e-13       1.380029351293e-16       4.229079794513e-11       4.918695126477e-12      -4.937042610036e-15 
   58       2.112479531164e-10       2.515732415084e-14      -1.721952883822e-13       1.429128541833e-16       4.066739897220e-11       4.750369854153e-12      -5.277999326989e-15 
   59       2.140866600948e-10       2.649100929099e-14      -2.109117289305e-13       1.479071487384e-16       3.912998947097e-11       4.590830129588e-12      -5.832308948808e-15 
   60       2.169509090112e-10       2.786265064561e-14      -2.513107765220e-13       1.529854480239e-16       3.766834371698e-11       4.438953172140e-12      -6.459865396506e-15 
   61       2.198371658028e-10       2.927198825795e-14      -2.934432875983e-13       1.581474332409e-16       3.627182424868e-11       4.293571392277e-12      -7.029645628528e-15 
   62       2.227469608028e-10       3.071847634409e-14      -3.373168886959e-13       1.633930940295e-16       3.493905143666e-11       4.154508178331e-12      -7.516129061914e-15 
   63       2.256827932176e-10       3.220142329085e-14      -3.829262682894e-13       1.687225288119e-16       3.367009701662e-11       4.021741656076e-12      -7.923061545366e-15 
   64       2.286466044948e-10       3.372004121960e-14      -4.302642596172e-13       1.741358729692e-16       3.246357544634e-11       3.895093101565e-12      -8.255607650108e-15 
   65       2.316397337415e-10       3.527344337664e-14      -4.793218413817e-13       1.796333007670e-16       3.131656093034e-11       3.774218038566e-12      -8.520419297914e-15 
   66       2.346628731440e-10       3.686064152351e-14      -5.300881384494e-13       1.852150272819e-16       3.022450444453e-11       3.658597335983e-12      -8.725704389144e-15 
   67       2.377160233864e-10       3.848054332733e-14      -5.825504225507e-13       1.908813103272e-16       2.918115076081e-11       3.547528305288e-12      -8.881295430776e-15 
   68       2.407989604238e-10       4.013207049713e-14      -6.366940577829e-13       1.966324405388e-16       2.818020925844e-11       3.440322019775e-12      -8.997627787312e-15 
   69       2.439128452790e-10       4.181454682295e-14      -6.925023227313e-13       2.024687049937e-16       2.722094496418e-11       3.336961600244e-12      -9.082280618110e-15 
   70       2.470588618444e-10       4.352738443683e-14      -7.499565533971e-13       2.083904196458e-16       2.630357654880e-11       3.237561935223e-12      -9.142855108885e-15 
   71       2.502377034516e-10       4.526997049359e-14      -8.090361945066e-13       2.143979421082e-16       2.542758534011e-11       3.142171697767e-12      -9.188042844490e-15 
   72       2.534495413691e-10       4.704166764932e-14      -8.697187987998e-13       2.204916732765e-16       2.459167720151e-11       3.050769717102e-12      -9.227666550072e-15 
   73       2.566939932986e-10       4.884181453987e-14      -9.319800263183e-13       2.266720589518e-16       2.379374441054e-11       2.963261350270e-12      -9.272720832223e-15 
   74       2.599700918734e-10       5.066972625926e-14      -9.957936436941e-13       2.329395914642e-16       2.303082753735e-11       2.879474853770e-12      -9.335412920123e-15 
   75       2.632762531545e-10       5.252469483825e-14      -1.061131523438e-12       2.392948112960e-16       2.229907732327e-11       2.799157755203e-12      -9.429203406697e-15 
   76       2.666109212088e-10       5.440582993540e-14      -1.127960743382e-12       2.457382098112e-16       2.159471027892e-11       2.722043692255e-12      -9.564907340070e-15 
   77       2.699747071778e-10       5.631154631426e-14      -1.196234275941e-12       2.522699133795e-16       2.091716092583e-11       2.648075021586e-12      -9.738086615699e-15 
   78       2.733685848565e-10       5.823998334024e-14      -1.265898591814e-12       2.588899443321e-16       2.026643779290e-11       2.577214400353e-12      -9.939421863151e-15 
   79       2.767932318640e-10       6.018915372385e-14      -1.336896350000e-12       2.655983143472e-16       1.964216323453e-11       2.509375772062e-12      -1.015840874054e-14 
   80       2.802490120040e-10       6.215694072260e-14      -1.409166337626e-12       2.723950240455e-16       1.904355568613e-11       2.444422183203e-12      -1.038331788995e-14 
   81       2.837359576259e-10       6.414109534287e-14      -1.482643409770e-12       2.792800625856e-16       1.846941191973e-11       2.382163599879e-12      -1.060115489293e-14 
   82       2.872537519855e-10       6.613923354184e-14      -1.557258429284e-12       2.862534072589e-16       1.791808929945e-11       2.322354724443e-12      -1.079762022586e-14 
   83       2.908017116059e-10       6.814883342941e-14      -1.632938206624e-12       2.933150230855e-16       1.738748803712e-11       2.264692812132e-12      -1.095706921547e-14 
   84       2.943791523914e-10       7.016748443486e-14      -1.709613850262e-12       3.004648777489e-16       1.687556155769e-11       2.208889081071e-12      -1.106575865476e-14 
   85       2.979865963446e-10       7.219368839660e-14      -1.787247540311e-12       3.077029901336e-16       1.638198367679e-11       2.154901326826e-12      -1.112229277079e-14 
   86       3.016247334869e-10       7.422618676341e-14      -1.865810103707e-12       3.150293891297e-16       1.590672655738e-11       2.102736046621e-12      -1.112884360900e-14 
   87       3.052940448672e-10       7.626372185290e-14      -1.945273078236e-12       3.224440988637e-16       1.544954843548e-11       2.052377342060e-12      -1.108803331185e-14 
   88       3.089947913724e-10       7.830503828807e-14      -2.025608793713e-12       3.299471385516e-16       1.500998475155e-11       2.003785972628e-12      -1.100294931226e-14 
   89       3.127270025378e-10       8.034888443394e-14      -2.106790453159e-12       3.375385223522e-16       1.458733928177e-11       1.956898409183e-12      -1.087715952701e-14 
   90       3.164904653577e-10       8.239401383417e-14      -2.188792213983e-12       3.452182592205e-16       1.418067526946e-11       1.911625887456e-12      -1.071472755025e-14 
   91       3.202847130954e-10       8.443918664762e-14      -2.271589269156e-12       3.529863527602e-16       1.378880655636e-11       1.867853461549e-12      -1.052022784685e-14 
   92       3.241090140942e-10       8.648317108502e-14      -2.355157928398e-12       3.608428010776e-16       1.341028871403e-11       1.825439057426e-12      -1.029876094589e-14 
   93       3.279626308179e-10       8.852463489765e-14      -2.439467620195e-12       3.687877137465e-16       1.304376177570e-11       1.784249161581e-12      -1.005548054578e-14 
   94       3.318456658440e-10       9.056179805451e-14      -2.524455345560e-12       3.768216831478e-16       1.268905665986e-11       1.744274082857e-12      -9.794060470706e-15 
   95       3.357583230116e-10       9.259273024089e-14      -2.610047514330e-12       3.849454689678e-16       1.234623952990e-11       1.705528356682e-12      -9.518024162604e-15 
   96       3.397006411484e-10       9.461545608010e-14      -2.696167652656e-12       3.931598875038e-16       1.201527103254e-11       1.668015216849e-12      -9.231220604949e-15 
   97       3.436724865903e-10       9.662795506087e-14      -2.782736373282e-12       4.014658131240e-16       1.169600225559e-11       1.631726151896e-12      -8.937832816265e-15 
   98       3.476735457012e-10       9.862816146472e-14      -2.869671345821e-12       4.098641797292e-16       1.138817068559e-11       1.596640461492e-12      -8.642386343657e-15 
   99       3.517033173931e-10       1.006139642933e-13      -2.956887267033e-12       4.183559822129e-16       1.109139616558e-11       1.562724812810e-12      -8.349757756338e-15 
  100       3.557611056459e-10       1.025832071959e-13      -3.044295831104e-12       4.269422779222e-16       1.080517685275e-11       1.529932796919e-12      -8.065183139156e-15 
  101       3.598460120269e-10       1.045336883965e-13      -3.131805699923e-12       4.356241881187e-16       1.052888517620e-11       1.498204485157e-12      -7.794266586118e-15 
  102       3.639569282111e-10       1.064631606215e-13      -3.219322473361e-12       4.444028994389e-16       1.026176379462e-11       1.467465985517e-12      -7.542988693920e-15 
  103       3.680925285007e-10       1.083693310269e-13      -3.306748659548e-12       4.532796653555e-16       1.000292155400e-11       1.437628999030e-12      -7.317715055474e-15 
  104       3.722515524904e-10       1.102499697500e-13      -3.393990168055e-12       4.622556760382e-16       9.751535514063e-12       1.408610915022e-12      -7.123729288934e-15 
  105       3.764337126592e-10       1.121032524203e-13      -3.480976852397e-12       4.713316447701e-16       9.507496814999e-12       1.380399143967e-12      -6.960588143202e-15 
  106       3.806388960070e-10       1.139274639969e-13      -3.567644700031e-12       4.805081681257e-16       9.270844928082e-12       1.352994688491e-12      -6.826151848248e-15 
  107       3.848668806168e-10       1.157208953836e-13      -3.653929598708e-12       4.897858525955e-16       9.041567621653e-12       1.326392165250e-12      -6.717995921293e-15 
