# dimensionless total [l(l+1)/2pi] C_l's
# for l=2 to 3000, i.e. number of multipoles equal to 2999
#
# -> if you prefer output in CAMB/HealPix/LensPix units/order, set 'format' to 'camb' in input file
# -> if you don't want to see such a header, set 'headers' to 'no' in input file
# -> for CMB lensing (phi), these are C_l^phi-phi for the lensing potential.
#    Remember the conversion factors:
#    C_l^dd (deflection) = l(l+1) C_l^phi-phi
#    C_l^gg (shear/convergence) = 1/4 (l(l+1))^2 C_l^phi-phi
#
# 1:l     2:TT                     3:EE                     4:TE                     5:BB                     6:phiphi                 7:TPhi                   8:Ephi               
    2       1.381672191121e-10       4.179499683040e-15       3.519335938596e-13       0.000000000000e+00       8.236345715484e-09       4.535748655438e-10      -1.842359971483e-12 
    3       1.306686611658e-10       5.354349835026e-15       3.955014520573e-13       0.000000000000e+00       5.068763597778e-09       3.217369154938e-10      -1.394920075648e-12 
    4       1.236001793253e-10       4.628866175837e-15       3.698083328650e-13       0.000000000000e+00       3.524743959263e-09       2.436997857927e-10      -9.127421857635e-13 
    5       1.183076845963e-10       3.086039434067e-15       3.148767439294e-13       0.000000000000e+00       2.631980820294e-09       1.925368525815e-10      -5.069340914643e-13 
    6       1.146780302572e-10       1.724512682357e-15       2.535647549060e-13       0.000000000000e+00       2.056887114197e-09       1.566785141488e-10      -2.081013463412e-13 
    7       1.123125102760e-10       9.315387484561e-16       1.990692151663e-13       0.000000000000e+00       1.660291803439e-09       1.303589812185e-10      -1.764541688822e-14 
    8       1.109311879320e-10       6.011013723780e-16       1.571595455636e-13       0.000000000000e+00       1.372925902204e-09       1.103958592899e-10       7.941422178616e-14 
    9       1.102859724143e-10       4.824289336715e-16       1.291091228585e-13       0.000000000000e+00       1.156601753761e-09       9.490323825684e-11       1.064376999485e-13 
   10       1.101461262167e-10       4.107510156128e-16       1.135895276196e-13       0.000000000000e+00       9.888512733596e-10       8.262925872292e-11       8.927909804014e-14 
   11       1.104529729261e-10       3.446472598566e-16       1.079387500808e-13       0.000000000000e+00       8.333804337332e-10       7.300890478750e-11       5.203124929130e-14 
   12       1.110547949220e-10       2.997606112314e-16       1.090991393320e-13       0.000000000000e+00       7.283489590686e-10       6.455586167159e-11       1.227599630793e-14 
   13       1.119012888258e-10       2.870889834209e-16       1.143864366838e-13       0.000000000000e+00       6.421078082299e-10       5.769182789313e-11      -1.798989760025e-14 
   14       1.129451299988e-10       2.986646823353e-16       1.217804103252e-13       0.000000000000e+00       5.703409159936e-10       5.171510398772e-11      -3.451240734620e-14 
   15       1.141729542007e-10       3.227444872754e-16       1.299915692503e-13       0.000000000000e+00       5.099194133766e-10       4.668819785546e-11      -3.750083237488e-14 
   16       1.155094875982e-10       3.568047338715e-16       1.383568923045e-13       0.000000000000e+00       4.585371756284e-10       4.235496816918e-11      -3.091279892492e-14 
   17       1.169823266339e-10       4.063743602057e-16       1.466585843361e-13       0.000000000000e+00       4.144517857253e-10       3.857283733957e-11      -1.994046106344e-14 
   18       1.185283007339e-10       4.768835176800e-16       1.551537303730e-13       0.000000000000e+00       3.761812867130e-10       3.527412534487e-11      -9.473326934204e-15 
   19       1.201586616414e-10       5.686595654060e-16       1.640642382244e-13       0.000000000000e+00       3.431210243185e-10       3.241157096393e-11      -2.116915704517e-15 
   20       1.218661550575e-10       6.797015659447e-16       1.735307423802e-13       0.000000000000e+00       3.139983640629e-10       2.986963992921e-11       4.178950611157e-16 
   21       1.236522709844e-10       8.093671293194e-16       1.835061896886e-13       0.000000000000e+00       2.883573023668e-10       2.760243577936e-11      -1.297255957968e-15 
   22       1.254909584127e-10       9.571661289137e-16       1.938038920504e-13       0.000000000000e+00       2.655859213097e-10       2.555359994146e-11      -5.508496646903e-15 
   23       1.273870911570e-10       1.123297541633e-15       2.040966097053e-13       0.000000000000e+00       2.453721979242e-10       2.371506539791e-11      -1.047337354514e-14 
   24       1.293343083917e-10       1.307992259370e-15       2.139695659829e-13       0.000000000000e+00       2.272498696015e-10       2.207081453838e-11      -1.433778041730e-14 
   25       1.313345652145e-10       1.511336477097e-15       2.231350618037e-13       0.000000000000e+00       2.110064530035e-10       2.060007437769e-11      -1.626983943018e-14 
   26       1.333766177902e-10       1.733605193171e-15       2.313466978287e-13       0.000000000000e+00       1.963485930984e-10       1.926616049707e-11      -1.593290617791e-14 
   27       1.354554386307e-10       1.976812941990e-15       2.384874996896e-13       0.000000000000e+00       1.831009166042e-10       1.805177774032e-11      -1.394333921664e-14 
   28       1.375592939829e-10       2.243491767485e-15       2.445119519608e-13       0.000000000000e+00       1.710354976839e-10       1.693804729448e-11      -1.130861565947e-14 
   29       1.396973472744e-10       2.535048070827e-15       2.494899505818e-13       0.000000000000e+00       1.600910562280e-10       1.592299984683e-11      -8.694803698399e-15 
   30       1.418740584964e-10       2.852516468546e-15       2.535672666228e-13       0.000000000000e+00       1.501504341163e-10       1.500085398628e-11      -6.780557787818e-15 
   31       1.440834200587e-10       3.196897043573e-15       2.568919307532e-13       0.000000000000e+00       1.410112932876e-10       1.415713188381e-11      -6.191227134693e-15 
   32       1.463284469732e-10       3.569248401323e-15       2.594078068976e-13       0.000000000000e+00       1.326266386103e-10       1.338335400768e-11      -6.736511042996e-15 
   33       1.486063115042e-10       3.970621214586e-15       2.609824756209e-13       0.000000000000e+00       1.249373357281e-10       1.266610190598e-11      -7.873686210809e-15 
   34       1.509072839425e-10       4.401982340404e-15       2.614681146973e-13       0.000000000000e+00       1.178359744087e-10       1.198863675439e-11      -9.001023415592e-15 
   35       1.532335614586e-10       4.864049616020e-15       2.607352278080e-13       0.000000000000e+00       1.112863425460e-10       1.135292792201e-11      -9.838986560203e-15 
   36       1.555852942103e-10       5.357386240302e-15       2.586483391715e-13       0.000000000000e+00       1.052360375386e-10       1.076457457523e-11      -1.017395954622e-14 
   37       1.579583656390e-10       5.882527060992e-15       2.550843662289e-13       0.000000000000e+00       9.960648353167e-11       1.022619703828e-11      -9.836467729510e-15 
   38       1.603568088866e-10       6.440292905209e-15       2.500301145959e-13       0.000000000000e+00       9.438322838331e-11       9.735643985964e-12      -8.978594158147e-15 
   39       1.627833464199e-10       7.031573808372e-15       2.435177100681e-13       0.000000000000e+00       8.954978461610e-11       9.286662022992e-12      -7.892037547050e-15 
   40       1.652353395114e-10       7.657243577863e-15       2.356001067526e-13       0.000000000000e+00       8.506015997085e-11       8.868956346158e-12      -6.939763767092e-15 
   41       1.677075632858e-10       8.318114635401e-15       2.263299889245e-13       0.000000000000e+00       8.085489957780e-11       8.471324101691e-12      -6.460906868821e-15 
   42       1.702029838327e-10       9.014787328350e-15       2.156852043259e-13       0.000000000000e+00       7.692168162840e-11       8.093067886908e-12      -6.437183837272e-15 
   43       1.727245333292e-10       9.747749838858e-15       2.036211658035e-13       0.000000000000e+00       7.325011471978e-11       7.735746926749e-12      -6.725627323543e-15 
   44       1.752717377281e-10       1.051741409747e-14       1.900908288655e-13       0.000000000000e+00       6.981355306544e-11       7.399949445673e-12      -7.146696965477e-15 
   45       1.778423121843e-10       1.132415653353e-14       1.750460210276e-13       0.000000000000e+00       6.657862595077e-11       7.085429917979e-12      -7.524043144653e-15 
   46       1.804383142127e-10       1.216846443436e-14       1.584425797171e-13       0.000000000000e+00       6.354027332892e-11       6.791780160793e-12      -7.823300226020e-15 
   47       1.830612539751e-10       1.305082642617e-14       1.402362624689e-13       0.000000000000e+00       6.069498290525e-11       6.517806986270e-12      -8.050942490726e-15 
   48       1.857100984830e-10       1.397169001082e-14       1.203810753521e-13       0.000000000000e+00       5.803022226102e-11       6.261248815429e-12      -8.216018509937e-15 
   49       1.883810443057e-10       1.493146008134e-14       9.882907920570e-14       0.000000000000e+00       5.552376794514e-11       6.018699435195e-12      -8.330311232592e-15 
   50       1.910696750620e-10       1.593047104434e-14       7.553555399642e-14       0.000000000000e+00       5.315040387342e-11       5.786581709354e-12      -8.408796512810e-15 
   51       1.937786516111e-10       1.696889771048e-14       5.047659402298e-14       0.000000000000e+00       5.090571652086e-11       5.564557182559e-12      -8.470794017267e-15 
   52       1.965117163884e-10       1.804681765017e-14       2.363595379688e-14       0.000000000000e+00       4.878759895944e-11       5.352910184166e-12      -8.539405440122e-15 
   53       1.992713787259e-10       1.916423281076e-14      -4.999835656141e-15       0.000000000000e+00       4.678912963858e-11       5.151552566816e-12      -8.641413368307e-15 
   54       2.020587997850e-10       2.032106679000e-14      -3.544140841393e-14       0.000000000000e+00       4.489824826789e-11       4.959996873068e-12      -8.807455413508e-15 
   55       2.048743404012e-10       2.151721124356e-14      -6.769674061825e-14       0.000000000000e+00       4.310143810190e-11       4.777591359455e-12      -9.062314371727e-15 
   56       2.077196276006e-10       2.275268485412e-14      -1.017718665833e-13       0.000000000000e+00       4.139658652715e-11       4.604354912035e-12      -9.392565100602e-15 
   57       2.105957999016e-10       2.402750907788e-14      -1.376702383230e-13       0.000000000000e+00       3.978275160425e-11       4.440302541057e-12      -9.771195437689e-15 
   58       2.135028020833e-10       2.534166167596e-14      -1.753924576530e-13       0.000000000000e+00       3.825627121234e-11       4.285185426492e-12      -1.016657963515e-14 
   59       2.164392959470e-10       2.669507590218e-14      -2.149362269775e-13       0.000000000000e+00       3.681059502544e-11       4.138474286915e-12      -1.054226740190e-14 
   60       2.194025710759e-10       2.808763969081e-14      -2.562963000769e-13       0.000000000000e+00       3.543611648884e-11       3.999342748386e-12      -1.085677294575e-14 
   61       2.223898052325e-10       2.951911703253e-14      -2.994648639468e-13       0.000000000000e+00       3.412284185755e-11       3.866897565024e-12      -1.107304707294e-14 
   62       2.254023780298e-10       3.098889331693e-14      -3.444328958079e-13       0.000000000000e+00       3.286947750652e-11       3.740967290963e-12      -1.118985522091e-14 
   63       2.284423715593e-10       3.249617112796e-14      -3.911890247489e-13       0.000000000000e+00       3.167609348668e-11       3.621461927705e-12      -1.121710026649e-14 
   64       2.315112606984e-10       3.404003979566e-14      -4.397190927192e-13       0.000000000000e+00       3.054138999292e-11       3.508133069096e-12      -1.116685533952e-14 
   65       2.346098666931e-10       3.561947211505e-14      -4.900061189934e-13       0.000000000000e+00       2.946261935831e-11       3.400565102625e-12      -1.105346010106e-14 
   66       2.377383107425e-10       3.723332106498e-14      -5.420302646349e-13       0.000000000000e+00       2.843550804831e-11       3.298166410719e-12      -1.089361702166e-14 
   67       2.408959675815e-10       3.888031652701e-14      -5.957687969604e-13       0.000000000000e+00       2.745417865495e-11       3.200160572040e-12      -1.070648765957e-14 
   68       2.440820717711e-10       4.055919669066e-14      -6.511976484858e-13       0.000000000000e+00       2.651272027929e-11       3.105785656904e-12      -1.051011190236e-14 
   69       2.472977829776e-10       4.226914052238e-14      -7.082965400105e-13       0.000000000000e+00       2.561044354645e-11       3.014958674265e-12      -1.030960795035e-14 
   70       2.505444577112e-10       4.400941743444e-14      -7.670448365360e-13       0.000000000000e+00       2.474755515440e-11       2.927730571402e-12      -1.010674331187e-14 
   71       2.538230044569e-10       4.577926051256e-14      -8.274200497818e-13       0.000000000000e+00       2.392356849418e-11       2.844086637932e-12      -9.903402482016e-15 
   72       2.571338539510e-10       4.757786667945e-14      -8.893978434283e-13       0.000000000000e+00       2.313726780244e-11       2.763943029196e-12      -9.701589179081e-15 
   73       2.604769294580e-10       4.940439685831e-14      -9.529520383608e-13       0.000000000000e+00       2.238667231383e-11       2.687143289669e-12      -9.503428580883e-15 
   74       2.638516170471e-10       5.125797613640e-14      -1.018054617913e-12       0.000000000000e+00       2.166900041351e-11       2.613454876345e-12      -9.311169561161e-15 
   75       2.672567358697e-10       5.313769392854e-14      -1.084675733112e-12       0.000000000000e+00       2.098063378962e-11       2.542565682143e-12      -9.127186925950e-15 
   76       2.706911254120e-10       5.504254051601e-14      -1.152783311902e-12       0.000000000000e+00       2.031801590928e-11       2.474166170603e-12      -8.953670769176e-15 
   77       2.741555965921e-10       5.697120294143e-14      -1.222341792970e-12       0.000000000000e+00       1.968061584160e-11       2.408220756609e-12      -8.791624197064e-15 
   78       2.776512841071e-10       5.892223201848e-14      -1.293313169480e-12       0.000000000000e+00       1.906844228539e-11       2.344739826888e-12      -8.641686047833e-15 
   79       2.811790442245e-10       6.089410153201e-14      -1.365657361780e-12       0.000000000000e+00       1.848114077408e-11       2.283696825711e-12      -8.504423446367e-15 
   80       2.847394377111e-10       6.288520709689e-14      -1.439332214521e-12       0.000000000000e+00       1.791797698720e-11       2.225026533826e-12      -8.380327624710e-15 
   81       2.883327127609e-10       6.489386501686e-14      -1.514293493785e-12       0.000000000000e+00       1.737782006196e-11       2.168623347379e-12      -8.269809742575e-15 
   82       2.919587879238e-10       6.691831114338e-14      -1.590494884202e-12       0.000000000000e+00       1.685912590475e-11       2.114339556843e-12      -8.173196707840e-15 
   83       2.956172350339e-10       6.895669973450e-14      -1.667887986077e-12       0.000000000000e+00       1.635992050265e-11       2.061983625946e-12      -8.090726997053e-15 
   84       2.993075617007e-10       7.100717260337e-14      -1.746422832354e-12       0.000000000000e+00       1.587827981181e-11       2.011367990215e-12      -8.022276798661e-15 
   85       3.030301499861e-10       7.306808223468e-14      -1.826049544280e-12       0.000000000000e+00       1.541389738548e-11       1.962465327073e-12      -7.966495434588e-15 
   86       3.067854427640e-10       7.513780373591e-14      -1.906716946217e-12       0.000000000000e+00       1.496674723632e-11       1.915275156961e-12      -7.921518280562e-15 
   87       3.105736461333e-10       7.721466787599e-14      -1.988372075976e-12       0.000000000000e+00       1.453660214613e-11       1.869775751375e-12      -7.885215116341e-15 
   88       3.143947173811e-10       7.929696112543e-14      -2.070960190678e-12       0.000000000000e+00       1.412302532321e-11       1.825923244052e-12      -7.855181413823e-15 
   89       3.182483529458e-10       8.138292569656e-14      -2.154424772613e-12       0.000000000000e+00       1.372536205971e-11       1.783650742160e-12      -7.828729625160e-15 
   90       3.221339763802e-10       8.347075958370e-14      -2.238707535102e-12       0.000000000000e+00       1.334273138900e-11       1.742867437485e-12      -7.802880470866e-15 
   91       3.260507263143e-10       8.555861660336e-14      -2.323748428353e-12       0.000000000000e+00       1.297401774300e-11       1.703457717625e-12      -7.774354227927e-15 
   92       3.299974444188e-10       8.764460643443e-14      -2.409485645324e-12       0.000000000000e+00       1.261786260954e-11       1.665280277172e-12      -7.739562017917e-15 
   93       3.339730278973e-10       8.972682258941e-14      -2.495856493397e-12       0.000000000000e+00       1.227298692423e-11       1.628202673503e-12      -7.695431825003e-15 
   94       3.379775737525e-10       9.180343105295e-14      -2.582800146643e-12       0.000000000000e+00       1.193923183175e-11       1.592212869746e-12      -7.642047583206e-15 
   95       3.420113851635e-10       9.387259511088e-14      -2.670255320257e-12       0.000000000000e+00       1.161665975879e-11       1.557322902620e-12      -7.580392747528e-15 
   96       3.460746153518e-10       9.593244902499e-14      -2.758159459135e-12       0.000000000000e+00       1.130523387491e-11       1.523534535740e-12      -7.511553639816e-15 
   97       3.501672605480e-10       9.798109845660e-14      -2.846448755616e-12       0.000000000000e+00       1.100481428990e-11       1.490838857351e-12      -7.436722195071e-15 
   98       3.542891529589e-10       1.000166208902e-13      -2.935058167230e-12       0.000000000000e+00       1.071515425101e-11       1.459215878058e-12      -7.357198707761e-15 
   99       3.584399537345e-10       1.020370660569e-13      -3.023921434440e-12       0.000000000000e+00       1.043589634032e-11       1.428634128556e-12      -7.274394578132e-15 
  100       3.626191459345e-10       1.040404563583e-13      -3.112971098386e-12       0.000000000000e+00       1.016656867193e-11       1.399050257363e-12      -7.189835058519e-15 
  101       3.668260274956e-10       1.060247872898e-13      -3.202138518634e-12       0.000000000000e+00       9.906581089356e-12       1.370408628551e-12      -7.105161999657e-15 
  102       3.710597041983e-10       1.079880278645e-13      -3.291353890916e-12       0.000000000000e+00       9.655221362736e-12       1.342640919475e-12      -7.022136596991e-15 
  103       3.753190826336e-10       1.099281210366e-13      -3.380546264878e-12       0.000000000000e+00       9.411651386174e-12       1.315665718507e-12      -6.942642136992e-15 
  104       3.796031005750e-10       1.118430351777e-13      -3.469644121531e-12       0.000000000000e+00       9.175097196261e-12       1.289407660668e-12      -6.868279947646e-15 
  105       3.839114686845e-10       1.137309255139e-13      -3.558577156227e-12       0.000000000000e+00       8.945456451784e-12       1.263858644891e-12      -6.799089173356e-15 
  106       3.882440163546e-10       1.155899953876e-13      -3.647274770741e-12       0.000000000000e+00       8.722766308363e-12       1.239024174875e-12      -6.734658375116e-15 
  107       3.926004588801e-10       1.174184481254e-13      -3.735665558679e-12       0.000000000000e+00       8.507015272556e-12       1.214904374333e-12      -6.674515179875e-15 
