# dimensionless total lensed [l(l+1)/2pi] C_l's
# for l=2 to 2500, i.e. number of multipoles equal to 2499
#
# -> if you prefer output in CAMB/HealPix/LensPix units/order, set 'format' to 'camb' in input file
# -> if you don't want to see such a header, set 'headers' to 'no' in input file
# -> for CMB lensing (phi), these are C_l^phi-phi for the lensing potential.
#    Remember the conversion factors:
#    C_l^dd (deflection) = l(l+1) C_l^phi-phi
#    C_l^gg (shear/convergence) = 1/4 (l(l+1))^2 C_l^phi-phi
#
# 1:l     2:TT                     3:EE                     4:TE                     5:BB                     6:phiphi                 7:TPhi                   8:Ephi               
    2       1.381341354385e-10       4.176086487289e-15       3.515761247480e-13       2.323324434893e-19       8.285700864043e-09       4.560794619797e-10      -1.840600396559e-12 
    3       1.306088274932e-10       5.351275202370e-15       3.951629285272e-13       4.647553137368e-19       5.086963624179e-09       3.225653631594e-10      -1.393870156763e-12 
    4       1.235436785314e-10       4.627240341995e-15       3.695432460774e-13       7.747915220300e-19       3.522983251416e-09       2.438408440312e-10      -9.122245259357e-13 
    5       1.182602899189e-10       3.085974768306e-15       3.147003996154e-13       1.162557181000e-18       2.621516519829e-09       1.923923820338e-10      -5.067135435892e-13 
    6       1.146396072221e-10       1.725603559506e-15       2.534557931986e-13       1.628193689801e-18       2.042590358271e-09       1.563935182778e-10      -2.080082806226e-13 
    7       1.122822483505e-10       9.335020754340e-16       1.990061312759e-13       2.171865387914e-18       1.644358566172e-09       1.299931986689e-10      -1.760723899487e-14 
    8       1.109081807897e-10       6.038238265947e-16       1.571242754545e-13       2.793756881739e-18       1.356592502342e-09       1.099887336367e-10       7.943242717031e-14 
    9       1.102693324286e-10       4.859094309218e-16       1.290899922277e-13       3.494070113863e-18       1.140655034546e-09       9.448220023644e-11       1.064493835548e-13 
   10       1.101354185865e-10       4.150351498140e-16       1.135792926060e-13       4.273021250524e-18       9.737536593782e-10       8.220663513243e-11       8.928873663452e-14 
   11       1.104473731458e-10       3.497986859765e-16       1.079343365475e-13       5.130837466131e-18       8.334433332985e-10       7.301999829784e-11       5.203849829817e-14 
   12       1.110541361259e-10       3.058526827924e-16       1.090982531338e-13       6.067753704536e-18       7.284077255873e-10       6.456656530261e-11       1.227917451364e-14 
   13       1.119051340173e-10       2.941998328652e-16       1.143885529739e-13       7.084009495159e-18       6.421587213952e-10       5.770054676796e-11      -1.799219858853e-14 
   14       1.129526996935e-10       3.068715357514e-16       1.217846113732e-13       8.179845898074e-18       5.703838005388e-10       5.172027350098e-11      -3.451685158995e-14 
   15       1.141839988791e-10       3.321258098180e-16       1.299980709608e-13       9.355502646003e-18       5.099592086792e-10       4.668963091680e-11      -3.750225577112e-14 
   16       1.155242943753e-10       3.674374422490e-16       1.383662718213e-13       1.061121554295e-17       4.585735390363e-10       4.235371210653e-11      -3.091057564342e-14 
   17       1.170006303900e-10       4.183432434505e-16       1.466672168996e-13       1.194721416935e-17       4.144843073080e-10       3.856969567607e-11      -1.993906962893e-14 
   18       1.185499677690e-10       4.902721061604e-16       1.551622776569e-13       1.336371980606e-17       3.762142352729e-10       3.526902854663e-11      -9.474468001318e-15 
   19       1.201836575663e-10       5.835500090419e-16       1.640746479278e-13       1.486094448869e-17       3.431461720179e-10       3.240457189022e-11      -2.117623157762e-15 
   20       1.218944274457e-10       6.961767791288e-16       1.735439932800e-13       1.643908841485e-17       3.140199568495e-10       2.986211822849e-11       4.238063301331e-16 
   21       1.236835748628e-10       8.275168494608e-16       1.835213641257e-13       1.809834108387e-17       2.883777569465e-10       2.759560306363e-11      -1.286611192780e-15 
   22       1.255250767054e-10       9.770833592367e-16       1.938186669888e-13       1.983887860077e-17       2.656025061872e-10       2.554790823091e-11      -5.504583125507e-15 
   23       1.274252851259e-10       1.145046026281e-15       2.041128469847e-13       2.166086644974e-17       2.453895439017e-10       2.371051638510e-11      -1.047673920051e-14 
   24       1.293784257933e-10       1.331620603216e-15       2.139913126934e-13       2.356445633907e-17       2.272775966456e-10       2.206680220359e-11      -1.433572037077e-14 
   25       1.313792982070e-10       1.537021957005e-15       2.231463413054e-13       2.554978953273e-17       2.110211444927e-10       2.059448392126e-11      -1.627002047243e-14 
   26       1.334102599952e-10       1.761620168910e-15       2.313142644715e-13       2.761699470413e-17       1.963022025057e-10       1.925664946502e-11      -1.595362812486e-14 
   27       1.354809175489e-10       2.007046475890e-15       2.384234591388e-13       2.976619553875e-17       1.830445520570e-10       1.804405235931e-11      -1.389858659124e-14 
   28       1.375939659131e-10       2.275557760675e-15       2.444854145494e-13       3.199750366003e-17       1.710876203558e-10       1.694134213019e-11      -1.110848166643e-14 
   29       1.397384976551e-10       2.569435027350e-15       2.495425917467e-13       3.431101883872e-17       1.601411784343e-10       1.592219420215e-11      -8.703045413707e-15 
   30       1.419210951169e-10       2.889770233218e-15       2.536432814792e-13       3.670684152338e-17       1.501449244492e-10       1.498555862256e-11      -7.071288597508e-15 
   31       1.441434412077e-10       3.237189252922e-15       2.568613527312e-13       3.918506418626e-17       1.410246881916e-10       1.413148245350e-11      -6.393884301890e-15 
   32       1.463974575776e-10       3.612264128093e-15       2.592645384055e-13       4.174577055565e-17       1.326362179234e-10       1.335296279706e-11      -6.758765328799e-15 
   33       1.486826282977e-10       4.015931685437e-15       2.607722218942e-13       4.438904599556e-17       1.249338597003e-10       1.264343429226e-11      -7.813610457992e-15 
   34       1.509926166987e-10       4.449218925443e-15       2.612438426261e-13       4.711497046180e-17       1.178494426770e-10       1.199059126897e-11      -8.970641089794e-15 
   35       1.533161627158e-10       4.913116410150e-15       2.605299844681e-13       4.992361790010e-17       1.112775713778e-10       1.137862846339e-11      -9.639040874582e-15 
   36       1.556602313638e-10       5.408525475892e-15       2.585281892484e-13       5.281506418861e-17       1.052012161172e-10       1.080545404609e-11      -9.756162482011e-15 
   37       1.580334056383e-10       5.936287031645e-15       2.551447167189e-13       5.578938184761e-17       9.960135882265e-11       1.027062606794e-11      -9.436647455378e-15 
   38       1.604389232618e-10       6.497190566463e-15       2.502791198864e-13       5.884663795931e-17       9.441902236454e-11       9.770390774170e-12      -8.835521348128e-15 
   39       1.628757642757e-10       7.091962151755e-15       2.438485644014e-13       6.198689468121e-17       8.957654761496e-11       9.299469177274e-12      -8.127055929556e-15 
   40       1.653439451412e-10       7.721233004968e-15       2.358719857435e-13       6.521021095199e-17       8.505911962283e-11       8.857916568240e-12      -7.425448171830e-15 
   41       1.678399387310e-10       8.385553682268e-15       2.264137867306e-13       6.851664139812e-17       8.085486860192e-11       8.446074114592e-12      -6.842075058324e-15 
   42       1.703545779527e-10       9.085396794186e-15       2.155628647907e-13       7.190623594450e-17       7.693054353575e-11       8.062515650718e-12      -6.508395534105e-15 
   43       1.728775158230e-10       9.821218383726e-15       2.033990305171e-13       7.537903771622e-17       7.324381289936e-11       7.704748683962e-12      -6.535363152040e-15 
   44       1.754135068357e-10       1.059367569956e-14       1.898764403702e-13       7.893507582877e-17       6.978900665765e-11       7.371948902633e-12      -6.873845360029e-15 
   45       1.779703203869e-10       1.140346966285e-14       1.749061732388e-13       8.257437044453e-17       6.656260814162e-11       7.062814823112e-12      -7.412600380702e-15 
   46       1.805539977305e-10       1.225128448853e-14       1.583872551828e-13       8.629693465410e-17       6.354952005082e-11       6.774685672996e-12      -8.014758216673e-15 
   47       1.831686446443e-10       1.313778731389e-14       1.402058433477e-13       9.010277439620e-17       6.072216153393e-11       6.503439508277e-12      -8.516318909811e-15 
   48       1.858164155596e-10       1.406353984412e-14       1.202578416706e-13       9.399188573399e-17       5.804895978048e-11       6.244683355147e-12      -8.770981668941e-15 
   49       1.884979444418e-10       1.502870470424e-14       9.852619076577e-14       9.796424596309e-17       5.552476213866e-11       5.997958075925e-12      -8.803079357211e-15 
   50       1.912116791467e-10       1.603325567314e-14       7.502396298447e-14       1.020198198595e-16       5.314744548417e-11       5.763543757220e-12      -8.695174204909e-15 
   51       1.939535078568e-10       1.707705369875e-14       4.977320291193e-14       1.061585618947e-16       5.090885701168e-11       5.541236094847e-12      -8.546331734837e-15 
   52       1.967165615162e-10       1.815984203756e-14       2.280530678112e-14       1.103804160207e-16       4.879439062721e-11       5.330310430625e-12      -8.472982841397e-15 
   53       1.994938836023e-10       1.928136490815e-14      -5.852456963591e-15       1.146853172554e-16       4.678757383327e-11       5.129834118032e-12      -8.579083564240e-15 
   54       2.022877001843e-10       2.044177045957e-14      -3.622232860726e-14       1.190731974111e-16       4.488618820127e-11       4.939780701440e-12      -8.855601630519e-15 
   55       2.051021892648e-10       2.164130295243e-14      -6.834168434404e-14       1.235439804640e-16       4.308955587581e-11       4.760139561389e-12      -9.256686075624e-15 
   56       2.079407464930e-10       2.288018862625e-14      -1.022503959937e-13       1.280975807474e-16       4.139368320397e-11       4.590571786249e-12      -9.727691529604e-15 
   57       2.108059078223e-10       2.415863601789e-14      -1.379910326715e-13       1.327339028119e-16       3.979104721122e-11       4.430388814000e-12      -1.020475298785e-14 
   58       2.136992721682e-10       2.547683627989e-14      -1.756090624582e-13       1.374528412860e-16       3.827038207731e-11       4.278531074016e-12      -1.061436058178e-14 
   59       2.166218147201e-10       2.683484555633e-14      -2.151401112607e-13       1.422542896222e-16       3.681978016207e-11       4.133854804543e-12      -1.089089975824e-14 
   60       2.195750874971e-10       2.823219948910e-14      -2.565678261405e-13       1.471381690245e-16       3.543732099196e-11       3.996118794623e-12      -1.103499425152e-14 
   61       2.225601614014e-10       2.966820959211e-14      -2.998565656277e-13       1.521044060042e-16       3.412253765398e-11       3.865189452657e-12      -1.106798463324e-14 
   62       2.255771972891e-10       3.114206971797e-14      -3.449632499200e-13       1.571529242434e-16       3.287322017663e-11       3.740742090078e-12      -1.101533421518e-14 
   63       2.286253818706e-10       3.265285237832e-14      -3.918371238128e-13       1.622836447568e-16       3.168531436343e-11       3.622250009761e-12      -1.090681281687e-14 
   64       2.317028636112e-10       3.419950506416e-14      -4.404195196300e-13       1.674964860534e-16       3.055282062643e-11       3.508973594443e-12      -1.077668053318e-14 
   65       2.348076684783e-10       3.578096489249e-14      -4.906564373877e-13       1.727913771037e-16       2.946944941869e-11       3.400163621219e-12      -1.065614387353e-14 
   66       2.379408165737e-10       3.739653903193e-14      -5.425399144348e-13       1.781682990690e-16       2.843422225818e-11       3.295745760748e-12      -1.054845445905e-14 
   67       2.411037529168e-10       3.904559850500e-14      -5.960750192902e-13       1.836272527250e-16       2.744687956427e-11       3.195761966004e-12      -1.044884957976e-14 
   68       2.442973898346e-10       4.072746660806e-14      -6.512679266912e-13       1.891682469466e-16       2.650617766960e-11       3.100164210489e-12      -1.035178269469e-14 
   69       2.475220702712e-10       4.244141854150e-14      -7.081260390479e-13       1.947912992275e-16       2.560983678923e-11       3.008809568982e-12      -1.025089104196e-14 
   70       2.507775310963e-10       4.418668103988e-14      -7.666581078982e-13       2.004964362003e-16       2.475448898978e-11       2.921455298300e-12      -1.013896324897e-14 
   71       2.540628664141e-10       4.596243200210e-14      -8.268743553623e-13       2.062836941566e-16       2.393562615858e-11       2.837753918051e-12      -1.000790694254e-14 
   72       2.573771111197e-10       4.776776542127e-14      -8.887781122001e-13       2.121531261949e-16       2.314875960456e-11       2.757347402847e-12      -9.851161344984e-15 
   73       2.607212027828e-10       4.960157920278e-14      -9.523386038743e-13       2.181048240968e-16       2.239327217385e-11       2.680181622184e-12      -9.671543172181e-15 
   74       2.640963317941e-10       5.146266504434e-14      -1.017513135940e-12       2.241389016093e-16       2.166921496233e-11       2.606243648453e-12      -9.474855233578e-15 
   75       2.675033323380e-10       5.334974008592e-14      -1.084255043596e-12       2.302554888484e-16       2.097613724563e-11       2.535465382108e-12      -9.267597919499e-15 
   76       2.709426598624e-10       5.526144574772e-14      -1.152513619455e-12       2.364547329705e-16       2.031306211110e-11       2.467720895242e-12      -9.056992632897e-15 
   77       2.744143685486e-10       5.719634656806e-14      -1.222234041314e-12       2.427367988440e-16       1.967846208978e-11       2.402823775161e-12      -8.851005221100e-15 
   78       2.779180887809e-10       5.915292904131e-14      -1.293357299921e-12       2.491018697199e-16       1.907023478840e-11       2.340524467960e-12      -8.658369407562e-15 
   79       2.814530046166e-10       6.112960045580e-14      -1.365820126749e-12       2.555501479037e-16       1.848567852134e-11       2.280507622095e-12      -8.488610223616e-15 
   80       2.850182981132e-10       6.312474013002e-14      -1.439560345951e-12       2.620818489299e-16       1.792216335744e-11       2.222470166035e-12      -8.349799616464e-15 
   81       2.886146207422e-10       6.513686592514e-14      -1.514534159520e-12       2.686971814445e-16       1.737933207933e-11       2.166377000875e-12      -8.241322844931e-15 
   82       2.922428375771e-10       6.716449466407e-14      -1.590701746177e-12       2.753963650375e-16       1.685723876131e-11       2.112245071397e-12      -8.159892745621e-15 
   83       2.959035694615e-10       6.920609211276e-14      -1.668022131579e-12       2.821796369724e-16       1.635567599140e-11       2.060065432592e-12      -8.101687700327e-15 
   84       2.995971791249e-10       7.126007278852e-14      -1.746453216545e-12       2.890472527364e-16       1.587416338139e-11       2.009802088315e-12      -8.062333071049e-15 
   85       3.033237572976e-10       7.332479976821e-14      -1.825951805268e-12       2.959994865916e-16       1.541193607685e-11       1.961390829930e-12      -8.036882635005e-15 
   86       3.070831088265e-10       7.539858449653e-14      -1.906473633537e-12       3.030366321262e-16       1.496793326715e-11       1.914738074961e-12      -8.019800019645e-15 
   87       3.108747387897e-10       7.747968659427e-14      -1.987973396952e-12       3.101590028051e-16       1.454078669553e-11       1.869719705745e-12      -8.004940137664e-15 
   88       3.146978386123e-10       7.956631366656e-14      -2.070404779140e-12       3.173669325213e-16       1.412880916908e-11       1.826179908078e-12      -7.985530622014e-15 
   89       3.185515964516e-10       8.165664622638e-14      -2.153719017643e-12       3.246607706744e-16       1.373039637962e-11       1.783969670829e-12      -7.955625315244e-15 
   90       3.224362144169e-10       8.374891736390e-14      -2.237860282232e-12       3.320408653236e-16       1.334532964920e-11       1.743071737536e-12      -7.914766506477e-15 
   91       3.263520260793e-10       8.584134527949e-14      -2.322769620214e-12       3.395075783947e-16       1.297365732442e-11       1.703493207152e-12      -7.864023245615e-15 
   92       3.302991775065e-10       8.793210946301e-14      -2.408386360450e-12       3.470612913794e-16       1.261529443380e-11       1.665227058713e-12      -7.804587834358e-15 
   93       3.342776182355e-10       9.001935087824e-14      -2.494648119666e-12       3.547024058044e-16       1.227001738966e-11       1.628251584160e-12      -7.737779314467e-15 
   94       3.382870922466e-10       9.210117214744e-14      -2.581490808761e-12       3.624313437003e-16       1.193745869014e-11       1.592529821160e-12      -7.665046956027e-15 
   95       3.423271289363e-10       9.417563773584e-14      -2.668848639118e-12       3.702485480704e-16       1.161710162110e-11       1.558008985926e-12      -7.587973745705e-15 
   96       3.463970340903e-10       9.624077413617e-14      -2.756654128916e-12       3.781544833599e-16       1.130827495809e-11       1.524619906042e-12      -7.508279875013e-15 
   97       3.504958808574e-10       9.829457005313e-14      -2.844838109435e-12       3.861496359250e-16       1.101014766833e-11       1.492276453281e-12      -7.427826228571e-15 
   98       3.546225007225e-10       1.003349765880e-13      -2.933329731372e-12       3.942345145016e-16       1.072172361260e-11       1.460874976429e-12      -7.348617872366e-15 
   99       3.587757732096e-10       1.023599543499e-13      -3.022057858696e-12       4.024096514015e-16       1.044206985800e-11       1.430319003121e-12      -7.272401963054e-15 
  100       3.629555613246e-10       1.043676220057e-13      -3.110955461864e-12       4.106756052799e-16       1.017104996738e-11       1.400598563576e-12      -7.199388951210e-15 
  101       3.671618924573e-10       1.063561292116e-13      -3.199955861482e-12       4.190329596330e-16       9.908685215031e-12       1.371721101009e-12      -7.129355885036e-15 
  102       3.713946661351e-10       1.083236123070e-13      -3.288991419109e-12       4.274823225776e-16       9.654927806777e-12       1.343686947384e-12      -7.062034420250e-15 
  103       3.756536486166e-10       1.102681950682e-13      -3.377993560385e-12       4.360243273290e-16       9.409658413553e-12       1.316489062526e-12      -6.997109392239e-15 
  104       3.799384674865e-10       1.121879894615e-13      -3.466892798162e-12       4.446596326787e-16       9.172683705014e-12       1.290112773234e-12      -6.934217388214e-15 
  105       3.842486062497e-10       1.140810963964e-13      -3.555618755627e-12       4.533889234723e-16       8.943733883135e-12       1.264535512396e-12      -6.872945319360e-15 
  106       3.885833989251e-10       1.159456064791e-13      -3.644100189436e-12       4.622129110872e-16       8.722460215802e-12       1.239726558099e-12      -6.812828992991e-15 
  107       3.929420246405e-10       1.177796007659e-13      -3.732265012842e-12       4.711323339106e-16       8.508432570414e-12       1.215646772743e-12      -6.753351684705e-15 
