# Matter power spectrum P(k) at redshift z=0
# for k=8.9932e-06 to 0.540777 h/Mpc,
# number of wavenumbers equal to 566
#    1:k (h/Mpc)              2:P (Mpc/h)^3        
       8.993195753682e-06       8.564321640938e+01 
       2.009038795399e-05       1.859284585550e+02 
       3.121654357406e-05       2.843781500229e+02 
       4.239386806513e-05       3.819633803277e+02 
       5.364483998639e-05       4.792044731846e+02 
       6.499235991507e-05       5.764694156037e+02 
       7.645990293030e-05       6.740584266993e+02 
       8.807167620630e-05       7.722357902272e+02 
       9.985278326361e-05       8.712469824988e+02 
       1.118293964429e-04       9.713275024859e+02 
       1.240289391818e-04       1.072708818761e+03 
       1.364802796821e-04       1.175622290603e+03 
       1.492139375474e-04       1.280302214925e+03 
       1.622623049316e-04       1.386988182468e+03 
       1.756598836618e-04       1.495927061783e+03 
       1.894435396507e-04       1.607374697194e+03 
       2.036527756836e-04       1.721597531964e+03 
       2.183300233074e-04       1.838873843305e+03 
       2.335209540262e-04       1.959495029415e+03 
       2.492748092743e-04       2.083766610084e+03 
       2.656447476174e-04       2.212009078918e+03 
       2.826882062614e-04       2.344558518255e+03 
       3.004672721347e-04       2.481766917118e+03 
       3.190490554585e-04       2.624002143490e+03 
       3.385060557341e-04       2.771647376610e+03 
       3.589165063674e-04       2.925100070306e+03 
       3.803646796566e-04       3.084770214856e+03 
       4.029411285870e-04       3.251077807570e+03 
       4.267428358939e-04       3.424449401391e+03 
       4.518732344196e-04       3.605313733911e+03 
       4.784420563582e-04       3.794096259536e+03 
       5.065649633016e-04       3.991212646020e+03 
       5.363629051653e-04       4.197061290413e+03 
       5.679611555548e-04       4.412015035647e+03 
       6.014879757188e-04       4.636412283969e+03 
       6.370728708693e-04       4.870547980304e+03 
       6.748444230771e-04       5.114664672607e+03 
       7.149277151954e-04       5.368944247582e+03 
       7.574413999612e-04       5.633500529785e+03 
       8.024945150875e-04       5.908372858279e+03 
       8.501831938050e-04       6.193520776589e+03 
       9.005874634616e-04       6.488819249557e+03 
       9.537683535047e-04       6.794054647621e+03 
       1.009765539814e-03       7.108920946545e+03 
       1.068595729083e-03       7.433016735063e+03 
       1.130251933973e-03       7.765844363398e+03 
       1.194703712696e-03       8.106780950758e+03 
       1.261898356788e-03       8.455150096795e+03 
       1.331762922898e-03       8.810220310620e+03 
       1.404206932723e-03       9.171178755382e+03 
       1.479125520235e-03       9.537177797923e+03 
       1.556402791362e-03       9.907359477302e+03 
       1.635915176105e-03       1.028087469716e+04 
       1.717534589597e-03       1.065690436388e+04 
       1.801131267382e-03       1.103466907548e+04 
       1.886576191902e-03       1.141343713243e+04 
       1.973743074515e-03       1.179252924612e+04 
       2.062509895754e-03       1.217131617080e+04 
       2.152760034229e-03       1.254922036640e+04 
       2.244383031751e-03       1.292571734984e+04 
       2.337275050573e-03       1.330033327263e+04 
       2.431339080187e-03       1.367263754040e+04 
       2.526484948044e-03       1.404226203038e+04 
       2.622629182796e-03       1.440886298478e+04 
       2.719694771574e-03       1.477214731568e+04 
       2.817610845521e-03       1.513185971422e+04 
       2.916312320879e-03       1.548777120507e+04 
       3.015739516759e-03       1.583968934686e+04 
       3.115837765483e-03       1.618744258444e+04 
       3.216557027042e-03       1.653088286859e+04 
       3.317851515761e-03       1.686988175414e+04 
       3.419679344525e-03       1.720437088036e+04 
       3.522002189878e-03       1.753421894208e+04 
       3.624784979727e-03       1.785936681177e+04 
       3.727995604287e-03       1.817976077164e+04 
       3.831604650078e-03       1.849534773008e+04 
       3.935585156258e-03       1.880609757740e+04 
       4.039912392217e-03       1.911198395329e+04 
       4.144563655139e-03       1.941298873233e+04 
       4.249518086138e-03       1.970909441623e+04 
       4.354756503520e-03       2.000030669611e+04 
       4.460261251780e-03       2.028662845645e+04 
       4.566016064932e-03       2.056806543708e+04 
       4.672005942890e-03       2.084462047282e+04 
       4.778217039686e-03       2.111632253725e+04 
       4.884636562382e-03       2.138318190063e+04 
       4.991252679658e-03       2.164522029573e+04 
       5.098054439113e-03       2.190247189585e+04 
       5.205031692434e-03       2.215495957292e+04 
       5.312175027631e-03       2.240271280410e+04 
       5.419475707658e-03       2.264576386103e+04 
       5.526925614757e-03       2.288414823228e+04 
       5.634517199979e-03       2.311790104365e+04 
       5.742243437345e-03       2.334706888873e+04 
       5.850097782207e-03       2.357168477555e+04 
       5.958074133368e-03       2.379178008904e+04 
       6.066166798620e-03       2.400741693518e+04 
       6.174370463341e-03       2.421862183080e+04 
       6.282680161868e-03       2.442543857350e+04 
       6.391091251371e-03       2.462792035981e+04 
       6.499599387987e-03       2.482610882431e+04 
       6.608200505010e-03       2.502003760847e+04 
       6.716890792919e-03       2.520976417164e+04 
       6.825666681102e-03       2.539532585643e+04 
       6.934524821090e-03       2.557675530982e+04 
       7.043462071183e-03       2.575410393081e+04 
       7.152475482327e-03       2.592742236484e+04 
       7.261562285133e-03       2.609676286329e+04 
       7.370719877939e-03       2.626214324279e+04 
       7.479945815822e-03       2.642360870608e+04 
       7.589237800463e-03       2.658122100196e+04 
       7.698593670813e-03       2.673502061555e+04 
       7.808011394471e-03       2.688501823096e+04 
       7.917489059727e-03       2.703129770547e+04 
       8.027024868197e-03       2.717387682930e+04 
       8.136617128027e-03       2.731280390086e+04 
       8.246264247584e-03       2.744813250836e+04 
       8.355964729628e-03       2.757988779324e+04 
       8.465717165902e-03       2.770810927499e+04 
       8.575520232113e-03       2.783284540703e+04 
       8.685372683280e-03       2.795412260304e+04 
       8.795273349413e-03       2.807200247665e+04 
       8.905221131490e-03       2.818650683787e+04 
       9.015214997731e-03       2.829769100156e+04 
       9.125253980120e-03       2.840557676622e+04 
       9.235337171174e-03       2.851019817936e+04 
       9.345463720938e-03       2.861160925013e+04 
       9.455632834178e-03       2.870984209933e+04 
       9.565843767773e-03       2.880495739345e+04 
       9.676095828279e-03       2.889693309619e+04 
       9.786388369664e-03       2.898586360124e+04 
       9.896720791187e-03       2.907175276588e+04 
       1.000709253543e-02       2.915465391875e+04 
       1.011750308645e-02       2.923458703043e+04 
       1.022795196807e-02       2.931161338076e+04 
       1.033843874225e-02       2.938573447525e+04 
       1.044896300763e-02       2.945700548356e+04 
       1.055952439811e-02       2.952544406541e+04 
       1.067012258153e-02       2.959111317598e+04 
       1.078075725850e-02       2.965401821865e+04 
       1.089142816121e-02       2.971419889323e+04 
       1.100213505243e-02       2.977170249042e+04 
       1.111287772448e-02       2.982653969849e+04 
       1.122365599833e-02       2.987875120557e+04 
       1.133446972273e-02       2.992836865547e+04 
       1.144531877346e-02       2.997542940089e+04 
       1.155620305253e-02       3.001996338319e+04 
       1.166712248753e-02       3.006199448753e+04 
       1.177807703100e-02       3.010152531457e+04 
       1.188906665980e-02       3.013865893545e+04 
       1.200009137462e-02       3.017338477766e+04 
       1.211115119944e-02       3.020572255803e+04 
       1.222224618108e-02       3.023573614667e+04 
       1.233337638877e-02       3.026345605018e+04 
       1.244454191378e-02       3.028883709788e+04 
       1.255574286904e-02       3.031201849898e+04 
       1.266697938882e-02       3.033295115900e+04 
       1.277825162848e-02       3.035167483128e+04 
       1.288955976416e-02       3.036823125413e+04 
       1.300090399256e-02       3.038262678307e+04 
       1.311228453077e-02       3.039491591448e+04 
       1.322370161605e-02       3.040513451599e+04 
       1.333515550567e-02       3.041327325422e+04 
       1.344664647682e-02       3.041940327079e+04 
       1.355817482650e-02       3.042348634551e+04 
       1.366974087139e-02       3.042559638888e+04 
       1.378134494782e-02       3.042579249729e+04 
       1.389298741174e-02       3.042402622078e+04 
       1.400466863868e-02       3.042036002687e+04 
       1.411638902374e-02       3.041480672976e+04 
       1.422814898163e-02       3.040744485572e+04 
       1.433994894669e-02       3.039824275761e+04 
       1.445178937296e-02       3.038725886544e+04 
       1.456367073423e-02       3.037445676204e+04 
       1.467559352416e-02       3.035993228282e+04 
       1.478755825634e-02       3.034371321605e+04 
       1.489956546448e-02       3.032578046019e+04 
       1.501161570248e-02       3.030613889379e+04 
       1.512370954465e-02       3.028491109419e+04 
       1.523584758584e-02       3.026204268570e+04 
       1.534803044165e-02       3.023754024239e+04 
       1.546025874861e-02       3.021150345084e+04 
       1.557253316446e-02       3.018388916331e+04 
       1.568485436832e-02       3.015473075214e+04 
       1.579722306098e-02       3.012411082885e+04 
       1.590963996515e-02       3.009198589531e+04 
       1.602210582576e-02       3.005840822047e+04 
       1.613462141028e-02       3.002339218208e+04 
       1.624718750897e-02       2.998694923839e+04 
       1.635980493529e-02       2.994912535394e+04 
       1.647247452618e-02       2.990995982419e+04 
       1.658519714249e-02       2.986944215825e+04 
       1.669797366929e-02       2.982755323216e+04 
       1.681080501635e-02       2.978438478176e+04 
       1.692369211847e-02       2.973994848053e+04 
       1.703663593596e-02       2.969427621430e+04 
       1.714963745510e-02       2.964730183258e+04 
       1.726269768856e-02       2.959916605714e+04 
       1.737581767592e-02       2.954981771464e+04 
       1.748899848415e-02       2.949930864755e+04 
       1.760224120814e-02       2.944758870706e+04 
       1.771554697126e-02       2.939479598536e+04 
       1.782891692586e-02       2.934079760541e+04 
       1.794235225392e-02       2.928580766945e+04 
       1.805585416758e-02       2.922969837302e+04 
       1.816942390981e-02       2.917255457818e+04 
       1.828306275501e-02       2.911441336607e+04 
       1.839677200969e-02       2.905516639654e+04 
       1.851055301318e-02       2.899499764791e+04 
       1.862440713825e-02       2.893377287356e+04 
       1.873833579194e-02       2.887169733778e+04 
       1.885234041623e-02       2.880859931393e+04 
       1.896642248888e-02       2.874464540844e+04 
       1.908058352417e-02       2.867972355052e+04 
       1.919482507377e-02       2.861393178452e+04 
       1.930914872759e-02       2.854729913217e+04 
       1.942355611464e-02       2.847983460701e+04 
       1.953804890394e-02       2.841153920876e+04 
       1.965262880550e-02       2.834243185035e+04 
       1.976729757123e-02       2.827249946522e+04 
       1.988205699598e-02       2.820181089885e+04 
       1.999690891854e-02       2.813040873621e+04 
       2.011185522274e-02       2.805821800297e+04 
       2.022689783851e-02       2.798524160308e+04 
       2.034203874306e-02       2.791164942709e+04 
       2.045727996198e-02       2.783728708591e+04 
       2.057262357053e-02       2.776227612731e+04 
       2.068807169483e-02       2.768662280063e+04 
       2.080362651315e-02       2.761036537540e+04 
       2.091929025726e-02       2.753350712255e+04 
       2.103506521380e-02       2.745588399325e+04 
       2.115095372567e-02       2.737774792188e+04 
       2.126695819353e-02       2.729906817856e+04 
       2.138308107727e-02       2.721980668813e+04 
       2.149932489762e-02       2.713987431628e+04 
       2.161569223772e-02       2.705955892140e+04 
       2.173218574479e-02       2.697869287402e+04 
       2.184880813188e-02       2.689728096663e+04 
       2.196556217964e-02       2.681538962341e+04 
       2.208245073813e-02       2.673300238713e+04 
       2.219947672877e-02       2.665017313083e+04 
       2.231664314627e-02       2.656690863515e+04 
       2.243395306070e-02       2.648321364451e+04 
       2.255140961956e-02       2.639895441185e+04 
       2.266901604997e-02       2.631437857977e+04 
       2.278677566096e-02       2.622946262019e+04 
       2.290469184574e-02       2.614412931550e+04 
       2.302276808418e-02       2.605839321959e+04 
       2.314100794527e-02       2.597232071334e+04 
       2.325941508974e-02       2.588589322500e+04 
       2.337799327273e-02       2.579915143976e+04 
       2.349674634658e-02       2.571199516435e+04 
       2.361567826372e-02       2.562466952470e+04 
       2.373479307966e-02       2.553693563516e+04 
       2.385409495607e-02       2.544892755442e+04 
       2.397358816405e-02       2.536069896773e+04 
       2.409327708741e-02       2.527205472942e+04 
       2.421316622617e-02       2.518324415750e+04 
       2.433326020018e-02       2.509429127183e+04 
       2.445356375280e-02       2.500503601927e+04 
       2.457408175481e-02       2.491560485585e+04 
       2.469481920844e-02       2.482582795079e+04 
       2.481578125159e-02       2.473583895917e+04 
       2.493697316212e-02       2.464581635463e+04 
       2.505840036244e-02       2.455546093231e+04 
       2.518006842418e-02       2.446502207946e+04 
       2.530198307315e-02       2.437441365013e+04 
       2.542415019435e-02       2.428367224614e+04 
       2.554657583738e-02       2.419267168979e+04 
       2.566926622192e-02       2.410163043885e+04 
       2.579222774351e-02       2.401043835046e+04 
       2.591546697955e-02       2.391907905204e+04 
       2.603899069556e-02       2.382763232267e+04 
       2.616280585176e-02       2.373610297082e+04 
       2.628691960980e-02       2.364445200667e+04 
       2.641133933997e-02       2.355271649241e+04 
       2.653607262856e-02       2.346099579636e+04 
       2.666112728564e-02       2.336912580458e+04 
       2.678651135315e-02       2.327720231692e+04 
       2.691223311342e-02       2.318515642959e+04 
       2.703830109797e-02       2.309309334435e+04 
       2.716472409680e-02       2.300099001907e+04 
       2.729151116810e-02       2.290882061496e+04 
       2.741867164839e-02       2.281666648956e+04 
       2.754621516315e-02       2.272452959334e+04 
       2.767415163797e-02       2.263230451669e+04 
       2.780249131025e-02       2.254009265255e+04 
       2.793124474139e-02       2.244785855299e+04 
       2.806042282972e-02       2.235561674553e+04 
       2.819003682393e-02       2.226342842073e+04 
       2.832009833729e-02       2.217114210603e+04 
       2.845061936248e-02       2.207904668396e+04 
       2.858161228730e-02       2.198679754113e+04 
       2.871308991111e-02       2.189458548518e+04 
       2.884506546211e-02       2.180249476734e+04 
       2.897755261567e-02       2.171045232165e+04 
       2.911056551343e-02       2.161836849733e+04 
       2.924411878364e-02       2.152633795405e+04 
       2.937822756246e-02       2.143430486577e+04 
       2.951290751652e-02       2.134238889700e+04 
       2.964817486666e-02       2.125047776002e+04 
       2.978404641310e-02       2.115859205042e+04 
       2.992053956199e-02       2.106679143557e+04 
       3.005767235349e-02       2.097507886404e+04 
       3.019546349146e-02       2.088337077243e+04 
       3.033393237501e-02       2.079183641207e+04 
       3.047309913178e-02       2.070026921478e+04 
       3.061298465338e-02       2.060884412760e+04 
       3.075361063285e-02       2.051740824832e+04 
       3.089499960453e-02       2.042606495232e+04 
       3.103717498644e-02       2.033480288225e+04 
       3.118016112522e-02       2.024351160926e+04 
       3.132398334411e-02       2.015246003840e+04 
       3.146866799392e-02       2.006138326588e+04 
       3.161424250744e-02       1.997042737946e+04 
       3.176073545737e-02       1.987954409338e+04 
       3.190817661830e-02       1.978864771561e+04 
       3.205659703278e-02       1.969789728517e+04 
       3.220602908207e-02       1.960714458049e+04 
       3.235650656180e-02       1.951653415681e+04 
       3.250806476307e-02       1.942598009647e+04 
       3.266074055931e-02       1.933552339370e+04 
       3.281457249960e-02       1.924501038725e+04 
       3.296960090883e-02       1.915465416960e+04 
       3.312586799545e-02       1.906438291515e+04 
       3.328341796744e-02       1.897409602189e+04 
       3.344229715725e-02       1.888386160296e+04 
       3.360255415659e-02       1.879371415552e+04 
       3.376423996193e-02       1.870360277347e+04 
       3.392740813191e-02       1.861355042058e+04 
       3.409211495760e-02       1.852345639863e+04 
       3.425841964705e-02       1.843354593574e+04 
       3.442638452558e-02       1.834364908006e+04 
       3.459607525325e-02       1.825366756323e+04 
       3.476756106156e-02       1.816371505434e+04 
       3.494091501124e-02       1.807379084745e+04 
       3.511621427343e-02       1.798386327403e+04 
       3.529354043689e-02       1.789399378204e+04 
       3.547297984408e-02       1.780401944866e+04 
       3.565462395942e-02       1.771406242848e+04 
       3.583856977344e-02       1.762413305997e+04 
       3.602492024709e-02       1.753405796977e+04 
       3.621378480093e-02       1.744396820205e+04 
       3.640527985476e-02       1.735376708596e+04 
       3.659952942407e-02       1.726350559592e+04 
       3.679666578021e-02       1.717320546419e+04 
       3.699683018292e-02       1.708272868060e+04 
       3.720017369451e-02       1.699223646833e+04 
       3.740685808674e-02       1.690162768493e+04 
       3.761705685326e-02       1.681088153576e+04 
       3.783095634234e-02       1.671987875542e+04 
       3.804875702711e-02       1.662856741230e+04 
       3.827067493359e-02       1.653719971987e+04 
       3.849694325011e-02       1.644557044768e+04 
       3.872781414586e-02       1.635359465045e+04 
       3.896356083135e-02       1.626143899135e+04 
       3.920447989980e-02       1.616900218603e+04 
       3.945089399521e-02       1.607616277932e+04 
       3.970315486245e-02       1.598290610151e+04 
       3.996164684492e-02       1.588932427538e+04 
       4.022679090893e-02       1.579523941613e+04 
       4.049904929015e-02       1.570072259670e+04 
       4.077893087757e-02       1.560557888362e+04 
       4.106699747546e-02       1.550991512505e+04 
       4.136387111487e-02       1.541358574961e+04 
       4.167024262507e-02       1.531652590189e+04 
       4.198688172434e-02       1.521865916109e+04 
       4.231464895070e-02       1.511993261147e+04 
       4.265450983153e-02       1.502026102179e+04 
       4.300755178945e-02       1.491960267554e+04 
       4.337500440778e-02       1.481775891107e+04 
       4.375826383907e-02       1.471472221850e+04 
       4.415892234459e-02       1.461012712781e+04 
       4.457880421234e-02       1.450399691008e+04 
       4.502000963052e-02       1.439597867759e+04 
       4.548496850605e-02       1.428597305167e+04 
       4.597650672593e-02       1.417372220888e+04 
       4.649792796703e-02       1.405876022732e+04 
       4.705311484397e-02       1.394070963477e+04 
       4.764665386882e-02       1.381906722320e+04 
       4.828398918292e-02       1.369319756877e+04 
