# Matter power spectrum P(k) at redshift z=0
# for k=1.17962e-05 to 0.709318 h/Mpc,
# number of wavenumbers equal to 556
#    1:k (h/Mpc)              2:P (Mpc/h)^3        
       1.179616958646e-05       3.610401516081e+01 
       2.635899395765e-05       7.840505388949e+01 
       4.098718060815e-05       1.200194251006e+02 
       5.573106927361e-05       1.614191881030e+02 
       7.064206073558e-05       2.028873376892e+02 
       8.577320200751e-05       2.446455302043e+02 
       1.011797951339e-04       2.868903755946e+02 
       1.169200397219e-04       3.298087004768e+02 
       1.330557193751e-04       3.735857787515e+02 
       1.496529422015e-04       4.184106502526e+02 
       1.667829454048e-04       4.644801340572e+02 
       1.845229734731e-04       5.120022295632e+02 
       2.029572384142e-04       5.611992480291e+02 
       2.221779685246e-04       6.123108574695e+02 
       2.422865488608e-04       6.655971351204e+02 
       2.633947513115e-04       7.213416669081e+02 
       2.856260441404e-04       7.798546930047e+02 
       3.091169590999e-04       8.414762436996e+02 
       3.340184775212e-04       9.065791614240e+02 
       3.604973738753e-04       9.755718499020e+02 
       3.887374249934e-04       1.048900483572e+03 
       4.189403547194e-04       1.127050349239e+03 
       4.513263377107e-04       1.210545837596e+03 
       4.861338350318e-04       1.299948506254e+03 
       5.236184842967e-04       1.395852543544e+03 
       5.640507296264e-04       1.498876830389e+03 
       6.077118689626e-04       1.609652904979e+03 
       6.548882413050e-04       1.728808221666e+03 
       7.058633992962e-04       1.856944518724e+03 
       7.609083322115e-04       1.994611684253e+03 
       8.202701206076e-04       2.142278339561e+03 
       8.841597826853e-04       2.300301333939e+03 
       9.527404374931e-04       2.468897170210e+03 
       1.026117151062e-03       2.648118871434e+03 
       1.104329835977e-03       2.837841683663e+03 
       1.187350278210e-03       3.037760012072e+03 
       1.275083795316e-03       3.247396641138e+03 
       1.367375317109e-03       3.466123198129e+03 
       1.464019013592e-03       3.693189152458e+03 
       1.564770149256e-03       3.927755856004e+03 
       1.669357707728e-03       4.168931510998e+03 
       1.777496487688e-03       4.415803834147e+03 
       1.888897720338e-03       4.667467618938e+03 
       2.003277673950e-03       4.923046183881e+03 
       2.120364087438e-03       5.181707556323e+03 
       2.239900553306e-03       5.442675194514e+03 
       2.361649136576e-03       5.705231004656e+03 
       2.485391585656e-03       5.968720513524e+03 
       2.610929491834e-03       6.232551004920e+03 
       2.738083714655e-03       6.496187818218e+03 
       2.866693333434e-03       6.759152282153e+03 
       2.996614325397e-03       7.021017025397e+03 
       3.127718116929e-03       7.281401315558e+03 
       3.259890109524e-03       7.539966746655e+03 
       3.393028247087e-03       7.796412132100e+03 
       3.527041665218e-03       8.050472307119e+03 
       3.661849444587e-03       8.301912648026e+03 
       3.797379477761e-03       8.550555423950e+03 
       3.933567450529e-03       8.796180111204e+03 
       4.070355933521e-03       9.038625795114e+03 
       4.207693576958e-03       9.277745064340e+03 
       4.345534399815e-03       9.513412907836e+03 
       4.483837164188e-03       9.745517581471e+03 
       4.622564825727e-03       9.973962837594e+03 
       4.761684051444e-03       1.019866248154e+04 
       4.901164796893e-03       1.041954100065e+04 
       5.040979935431e-03       1.063653902245e+04 
       5.181104933047e-03       1.084959821035e+04 
       5.321517562990e-03       1.105867342770e+04 
       5.462197655100e-03       1.126373049942e+04 
       5.603126875414e-03       1.146473628068e+04 
       5.744288532132e-03       1.166166230706e+04 
       5.885667404588e-03       1.185449789834e+04 
       6.027249592277e-03       1.204322777565e+04 
       6.169022381401e-03       1.222784338896e+04 
       6.310974126700e-03       1.240834381866e+04 
       6.453094146688e-03       1.258473212487e+04 
       6.595372630602e-03       1.275701288217e+04 
       6.737800555627e-03       1.292519331497e+04 
       6.880369613165e-03       1.308929750499e+04 
       7.023072143025e-03       1.324932661982e+04 
       7.165901074622e-03       1.340530465451e+04 
       7.308849874335e-03       1.355726128861e+04 
       7.451912498313e-03       1.370521293367e+04 
       7.595083350109e-03       1.384918557036e+04 
       7.738357242575e-03       1.398921483095e+04 
       7.881729363553e-03       1.412532866931e+04 
       8.025195244938e-03       1.425755840771e+04 
       8.168750734732e-03       1.438594230891e+04 
       8.312391971776e-03       1.451051462603e+04 
       8.456115362867e-03       1.463131135740e+04 
       8.599917562009e-03       1.474838470140e+04 
       8.743795451575e-03       1.486176149473e+04 
       8.887746125182e-03       1.497149097173e+04 
       9.031766872101e-03       1.507761145517e+04 
       9.175855163055e-03       1.518017490395e+04 
       9.320008637261e-03       1.527921956560e+04 
       9.464225090593e-03       1.537478656644e+04 
       9.608502464759e-03       1.546693827930e+04 
       9.752838837396e-03       1.555571245647e+04 
       9.897232412994e-03       1.564115295398e+04 
       1.004168151457e-02       1.572330900268e+04 
       1.018618457603e-02       1.580222929807e+04 
       1.033074013514e-02       1.587796412240e+04 
       1.047534682707e-02       1.595055920593e+04 
       1.062000337846e-02       1.602006411583e+04 
       1.076470860191e-02       1.608653030032e+04 
       1.090946139098e-02       1.615000645159e+04 
       1.105426071547e-02       1.621053307236e+04 
       1.119910561719e-02       1.626817073428e+04 
       1.134399520592e-02       1.632296041898e+04 
       1.148892865577e-02       1.637495586027e+04 
       1.163390520176e-02       1.642420171115e+04 
       1.177892413673e-02       1.647074545883e+04 
       1.192398480833e-02       1.651464598752e+04 
       1.206908661642e-02       1.655593496871e+04 
       1.221422901051e-02       1.659466422872e+04 
       1.235941148744e-02       1.663088306993e+04 
       1.250463358927e-02       1.666464577269e+04 
       1.264989490127e-02       1.669598404208e+04 
       1.279519505003e-02       1.672494764461e+04 
       1.294053370182e-02       1.675158959306e+04 
       1.308591056093e-02       1.677593688435e+04 
       1.323132536822e-02       1.679804873986e+04 
       1.337677789977e-02       1.681797165768e+04 
       1.352226796555e-02       1.683573551184e+04 
       1.366779540834e-02       1.685139064330e+04 
       1.381336010253e-02       1.686498322185e+04 
       1.395896195318e-02       1.687654315863e+04 
       1.410460089509e-02       1.688612523343e+04 
       1.425027689188e-02       1.689375930638e+04 
       1.439598993524e-02       1.689949271874e+04 
       1.454174004419e-02       1.690335833544e+04 
       1.468752726439e-02       1.690539899611e+04 
       1.483335166752e-02       1.690565074739e+04 
       1.497921335070e-02       1.690415536483e+04 
       1.512511243600e-02       1.690094323948e+04 
       1.527104906995e-02       1.689605104389e+04 
       1.541702342306e-02       1.688952333076e+04 
       1.556303568952e-02       1.688138708666e+04 
       1.570908608676e-02       1.687167986968e+04 
       1.585517485519e-02       1.686043246566e+04 
       1.600130225790e-02       1.684767910653e+04 
       1.614746858040e-02       1.683346498320e+04 
       1.629367413042e-02       1.681780634001e+04 
       1.643991923774e-02       1.680073748507e+04 
       1.658620425401e-02       1.678230563286e+04 
       1.673252955260e-02       1.676252792443e+04 
       1.687889552857e-02       1.674143980461e+04 
       1.702530259851e-02       1.671907016433e+04 
       1.717175120056e-02       1.669545340119e+04 
       1.731824179435e-02       1.667061362765e+04 
       1.746477486098e-02       1.664457680684e+04 
       1.761135090307e-02       1.661737191684e+04 
       1.775797044478e-02       1.658902590398e+04 
       1.790463403188e-02       1.655956459742e+04 
       1.805134223184e-02       1.652901833217e+04 
       1.819809563391e-02       1.649741071437e+04 
       1.834489484924e-02       1.646476689090e+04 
       1.849174051106e-02       1.643111844947e+04 
       1.863863327478e-02       1.639648099285e+04 
       1.878557381823e-02       1.636088373202e+04 
       1.893256284181e-02       1.632434570235e+04 
       1.907960106870e-02       1.628690251871e+04 
       1.922668924515e-02       1.624856740577e+04 
       1.937382814065e-02       1.620935776432e+04 
       1.952101854827e-02       1.616930796479e+04 
       1.966826128488e-02       1.612843027562e+04 
       1.981555719151e-02       1.608675716326e+04 
       1.996290713362e-02       1.604430644304e+04 
       2.011031200148e-02       1.600108887873e+04 
       2.025777271047e-02       1.595712742668e+04 
       2.040529020152e-02       1.591245104646e+04 
       2.055286544143e-02       1.586707351064e+04 
       2.070049942332e-02       1.582101041200e+04 
       2.084819316705e-02       1.577429737724e+04 
       2.099594771963e-02       1.572691656474e+04 
       2.114376415573e-02       1.567892998579e+04 
       2.129164357810e-02       1.563032732539e+04 
       2.143958711812e-02       1.558112510752e+04 
       2.158759593629e-02       1.553135805742e+04 
       2.173567122274e-02       1.548104033241e+04 
       2.188381419786e-02       1.543016914348e+04 
       2.203202611276e-02       1.537877567098e+04 
       2.218030824998e-02       1.532686278523e+04 
       2.232866192401e-02       1.527448645964e+04 
       2.247708848198e-02       1.522162433045e+04 
       2.262558930430e-02       1.516828583844e+04 
       2.277416580532e-02       1.511450756582e+04 
       2.292281943406e-02       1.506028636001e+04 
       2.307155167491e-02       1.500566060016e+04 
       2.322036404837e-02       1.495061488954e+04 
       2.336925811185e-02       1.489519284118e+04 
       2.351823546040e-02       1.483937873135e+04 
       2.366729772762e-02       1.478321209609e+04 
       2.381644658642e-02       1.472665714831e+04 
       2.396568374992e-02       1.466979738473e+04 
       2.411501097235e-02       1.461258917200e+04 
       2.426443005000e-02       1.455509338523e+04 
       2.441394282210e-02       1.449728865419e+04 
       2.456355117188e-02       1.443915375392e+04 
       2.471325702753e-02       1.438075510976e+04 
       2.486306236327e-02       1.432208621234e+04 
       2.501296920042e-02       1.426315929952e+04 
       2.516297960849e-02       1.420398896540e+04 
       2.531309570637e-02       1.414457905307e+04 
       2.546331966345e-02       1.408496652464e+04 
       2.561365370085e-02       1.402508981667e+04 
       2.576410009272e-02       1.396501955536e+04 
       2.591466116746e-02       1.390477573707e+04 
       2.606533930909e-02       1.384433069224e+04 
       2.621613695861e-02       1.378365364342e+04 
       2.636705661542e-02       1.372288422542e+04 
       2.651810083878e-02       1.366194364097e+04 
       2.666927224929e-02       1.360082665502e+04 
       2.682057353047e-02       1.353955444676e+04 
       2.697200743034e-02       1.347817118206e+04 
       2.712357676309e-02       1.341661283140e+04 
       2.727528441075e-02       1.335499950523e+04 
       2.742713332499e-02       1.329326139659e+04 
       2.757912652889e-02       1.323139395939e+04 
       2.773126711884e-02       1.316946088962e+04 
       2.788355826646e-02       1.310741921559e+04 
       2.803600322060e-02       1.304531591020e+04 
       2.818860530940e-02       1.298307973294e+04 
       2.834136794240e-02       1.292084610933e+04 
       2.849429461275e-02       1.285850721853e+04 
       2.864738889951e-02       1.279618666100e+04 
       2.880065446994e-02       1.273376016063e+04 
       2.895409508195e-02       1.267131551217e+04 
       2.910771458663e-02       1.260884694991e+04 
       2.926151693078e-02       1.254633355881e+04 
       2.941550615967e-02       1.248380523213e+04 
       2.956968641975e-02       1.242126574135e+04 
       2.972406196152e-02       1.235871529275e+04 
       2.987863714254e-02       1.229617243311e+04 
       3.003341643047e-02       1.223360876438e+04 
       3.018840440623e-02       1.217110899435e+04 
       3.034360576733e-02       1.210857729038e+04 
       3.049902533127e-02       1.204605200310e+04 
       3.065466803904e-02       1.198363222988e+04 
       3.081053895883e-02       1.192120414148e+04 
       3.096664328977e-02       1.185879057377e+04 
       3.112298636589e-02       1.179648000923e+04 
       3.127957366020e-02       1.173414864706e+04 
       3.143641078891e-02       1.167192621673e+04 
       3.159350351580e-02       1.160972383591e+04 
       3.175085775680e-02       1.154760861928e+04 
       3.190847958470e-02       1.148550361547e+04 
       3.206637523405e-02       1.142353371544e+04 
       3.222455110627e-02       1.136165395884e+04 
       3.238301377494e-02       1.129983861589e+04 
       3.254176999130e-02       1.123805205054e+04 
       3.270082668994e-02       1.117642408766e+04 
       3.286019099480e-02       1.111486817262e+04 
       3.301987022531e-02       1.105338511900e+04 
       3.317987190286e-02       1.099205539455e+04 
       3.334020375745e-02       1.093080220155e+04 
       3.350087373471e-02       1.086965217507e+04 
       3.366189000315e-02       1.080862762469e+04 
       3.382326096169e-02       1.074773482794e+04 
       3.398499524761e-02       1.068693828858e+04 
       3.414710174470e-02       1.062626487525e+04 
       3.430958959188e-02       1.056575015871e+04 
       3.447246819213e-02       1.050534848762e+04 
       3.463574722181e-02       1.044507144737e+04 
       3.479943664044e-02       1.038495120548e+04 
       3.496354670081e-02       1.032493049186e+04 
       3.512808795971e-02       1.026507014783e+04 
       3.529307128894e-02       1.020539284783e+04 
       3.545850788701e-02       1.014583452920e+04 
       3.562440929127e-02       1.008643442432e+04 
       3.579078739060e-02       1.002715498986e+04 
       3.595765443878e-02       9.968105808536e+03 
       3.612502306841e-02       9.909157298570e+03 
       3.629290630554e-02       9.850410148939e+03 
       3.646131758495e-02       9.791751128309e+03 
       3.663027076629e-02       9.733363094471e+03 
       3.679978015086e-02       9.675031657406e+03 
       3.696986049938e-02       9.616933172724e+03 
       3.714052705051e-02       9.558977224549e+03 
       3.731179554042e-02       9.501188621438e+03 
       3.748368222331e-02       9.443580007152e+03 
       3.765620389298e-02       9.386168490618e+03 
       3.782937790557e-02       9.328931453932e+03 
       3.800322220346e-02       9.271856569358e+03 
       3.817775534048e-02       9.214956351218e+03 
       3.835299650848e-02       9.158215604042e+03 
       3.852896556527e-02       9.101674533404e+03 
       3.870568306424e-02       9.045316208778e+03 
       3.888317028551e-02       8.989115310698e+03 
       3.906144926889e-02       8.933109102190e+03 
       3.924054284871e-02       8.877271231915e+03 
       3.942047469066e-02       8.821626474761e+03 
       3.960126933074e-02       8.766152791845e+03 
       3.978295221660e-02       8.710860185187e+03 
       3.996554975121e-02       8.655738095361e+03 
       4.014908933929e-02       8.600821060802e+03 
       4.033359943651e-02       8.546071537827e+03 
       4.051910960173e-02       8.491471395044e+03 
       4.070565055253e-02       8.437083874960e+03 
       4.089325422427e-02       8.382851999960e+03 
       4.108195383286e-02       8.328814751903e+03 
       4.127178394171e-02       8.274909694049e+03 
       4.146278053300e-02       8.221199282385e+03 
       4.165498108374e-02       8.167666787510e+03 
       4.184842464692e-02       8.114293818625e+03 
       4.204315193829e-02       8.061109421096e+03 
       4.223920542900e-02       8.008071988117e+03 
       4.243662944492e-02       7.955199292323e+03 
       4.263547027291e-02       7.902476052214e+03 
       4.283577627477e-02       7.849932144733e+03 
       4.303759800956e-02       7.797508923084e+03 
       4.324098836501e-02       7.745268042680e+03 
       4.344600269874e-02       7.693192077089e+03 
       4.365269899033e-02       7.641211913809e+03 
       4.386113800521e-02       7.589420163683e+03 
       4.407138347129e-02       7.537727142574e+03 
       4.428350226992e-02       7.486198189853e+03 
       4.449756464209e-02       7.434810422610e+03 
       4.471364441182e-02       7.383554566438e+03 
       4.493181922811e-02       7.332405349393e+03 
       4.515217082749e-02       7.281399343892e+03 
       4.537478531929e-02       7.230444006321e+03 
       4.559975349591e-02       7.179680587780e+03 
       4.582717117085e-02       7.128989918884e+03 
       4.605713954740e-02       7.078386134162e+03 
       4.628976562141e-02       7.027920480460e+03 
       4.652516262199e-02       6.977485465124e+03 
       4.676345049433e-02       6.927156947470e+03 
       4.700475642959e-02       6.876927191873e+03 
       4.724921544743e-02       6.826734062475e+03 
       4.749697103743e-02       6.776619431610e+03 
       4.774817586663e-02       6.726576105292e+03 
       4.800299256142e-02       6.676553636757e+03 
       4.826159457324e-02       6.626576347146e+03 
       4.852416713883e-02       6.576646845901e+03 
       4.879090834775e-02       6.526735486775e+03 
       4.906203033138e-02       6.476815851383e+03 
       4.933776059021e-02       6.426912477446e+03 
       4.961834347885e-02       6.377020608801e+03 
       4.990404187143e-02       6.327086887024e+03 
       5.019513903372e-02       6.277127037942e+03 
       5.049194073300e-02       6.227125450399e+03 
       5.079477762217e-02       6.177053027382e+03 
       5.110400794099e-02       6.126943552041e+03 
       5.142002058539e-02       6.076719692601e+03 
       5.174323860522e-02       6.026407214704e+03 
       5.207412320260e-02       5.975966741795e+03 
       5.241317831700e-02       5.925411248040e+03 
       5.276095590070e-02       5.874664240332e+03 
       5.311806200966e-02       5.823744845994e+03 
       5.348516386099e-02       5.772651550356e+03 
       5.386299804132e-02       5.721284525799e+03 
       5.425238009070e-02       5.669691908545e+03 
       5.465421573794e-02       5.617797019965e+03 
       5.506951412716e-02       5.565577782227e+03 
       5.549940345601e-02       5.513006483355e+03 
       5.594514954803e-02       5.460024603104e+03 
       5.640817801119e-02       5.406592535806e+03 
       5.689010079948e-02       5.352666366919e+03 
       5.739274820421e-02       5.298150016928e+03 
       5.791820756967e-02       5.243014660047e+03 
       5.846887036828e-02       5.187166506093e+03 
       5.904748970172e-02       5.130490045681e+03 
       5.965725083560e-02       5.072903373963e+03 
       6.030185804176e-02       5.014256701020e+03 
       6.098564181882e-02       4.954412401877e+03 
       6.171369145941e-02       4.893168354886e+03 
       6.249201883111e-02       4.830287798237e+03 
       6.332775987919e-02       4.765504207757e+03 
       6.422942017193e-02       4.698424276136e+03 
       6.520716860816e-02       4.628618414327e+03 
       6.627317686572e-02       4.555490238153e+03 
       6.744198696964e-02       4.478290971496e+03 
       6.873085804616e-02       4.396025113312e+03 
       7.015998460627e-02       4.307431237289e+03 
       7.175237983626e-02       4.210878716936e+03 
       7.353307707934e-02       4.104254016052e+03 
       7.552716791264e-02       3.985099442706e+03 
       7.775622770346e-02       3.850678789407e+03 
