# Matter power spectrum P(k) at redshift z=0
# for k=1.04578e-05 to 0.628483 h/Mpc,
# number of wavenumbers equal to 560
#    1:k (h/Mpc)              2:P (Mpc/h)^3        
       1.045775518247e-05       5.096897437558e+01 
       2.336509871544e-05       1.106716050128e+02 
       3.631798281066e-05       1.693486695798e+02 
       4.935140149912e-05       2.276248501445e+02 
       6.250092964603e-05       2.858570552780e+02 
       7.580304145807e-05       3.443136927894e+02 
       8.929543921071e-05       4.032249047521e+02 
       1.030173965843e-04       4.628031755131e+02 
       1.170101210315e-04       5.232539000376e+02 
       1.313171396315e-04       5.847818018170e+02 
       1.459847128932e-04       6.475953969026e+02 
       1.610622809061e-04       7.119104903789e+02 
       1.766029460536e-04       7.779531551670e+02 
       1.926639961239e-04       8.459624684062e+02 
       2.093074709739e-04       9.161931411551e+02 
       2.266007747978e-04       9.889181158036e+02 
       2.446173343379e-04       1.064431175039e+03 
       2.634373008355e-04       1.143049574557e+03 
       2.831482898717e-04       1.225116676287e+03 
       3.038461481510e-04       1.311004547284e+03 
       3.256357293520e-04       1.401116420386e+03 
       3.486316519911e-04       1.495888912963e+03 
       3.729590004406e-04       1.595793830173e+03 
       3.987539155560e-04       1.701339294743e+03 
       4.261640038364e-04       1.813069932666e+03 
       4.553484742443e-04       1.931565728302e+03 
       4.864778911635e-04       2.057439093962e+03 
       5.197334131627e-04       2.191329665831e+03 
       5.553053745146e-04       2.333896324533e+03 
       5.933910658883e-04       2.485805886188e+03 
       6.341915898748e-04       2.647718184667e+03 
       6.779077141012e-04       2.820267360231e+03 
       7.247347260391e-04       3.004039597699e+03 
       7.748564106106e-04       3.199548028121e+03 
       8.284384168938e-04       3.407206207079e+03 
       8.856214343061e-04       3.627301878604e+03 
       9.465147304854e-04       3.859973579155e+03 
       1.011190674995e-03       4.105192440414e+03 
       1.079680851370e-03       4.362751672488e+03 
       1.151974229071e-03       4.632265257717e+03 
       1.228017638948e-03       4.913176641378e+03 
       1.307718512819e-03       5.204776771689e+03 
       1.390949570082e-03       5.506207842319e+03 
       1.477554921507e-03       5.816536617190e+03 
       1.567356951777e-03       6.134784878009e+03 
       1.660163346188e-03       6.459922628979e+03 
       1.755773723046e-03       6.790915364210e+03 
       1.853985483966e-03       7.126748190172e+03 
       1.954598659658e-03       7.466444643592e+03 
       2.057419677263e-03       7.809081340907e+03 
       2.162264089014e-03       8.153796675259e+03 
       2.268958375677e-03       8.499797185264e+03 
       2.377340975716e-03       8.846359145968e+03 
       2.487262700840e-03       9.192828118131e+03 
       2.598586689752e-03       9.538616571484e+03 
       2.711188032849e-03       9.883200519628e+03 
       2.824953177372e-03       1.022611583386e+04 
       2.939779199192e-03       1.056695244829e+04 
       3.055573006271e-03       1.090534975014e+04 
       3.172250520965e-03       1.124099322777e+04 
       3.289735873921e-03       1.157360826900e+04 
       3.407960631135e-03       1.190295825391e+04 
       3.526863067391e-03       1.222883421895e+04 
       3.646387493185e-03       1.255106038239e+04 
       3.766483637985e-03       1.286948430843e+04 
       3.887106089747e-03       1.318397776898e+04 
       4.008213788728e-03       1.349443024329e+04 
       4.129769572480e-03       1.380075029787e+04 
       4.251739768286e-03       1.410286191216e+04 
       4.374093829020e-03       1.440070204170e+04 
       4.496804008405e-03       1.469422000491e+04 
       4.619845071741e-03       1.498338411806e+04 
       4.743194038430e-03       1.526814728297e+04 
       4.866829952873e-03       1.554848936794e+04 
       4.990733680603e-03       1.582443770390e+04 
       5.114887726848e-03       1.609594491600e+04 
       5.239276074967e-03       1.636299478495e+04 
       5.363884042485e-03       1.662573649983e+04 
       5.488698152730e-03       1.688405892224e+04 
       5.613706020256e-03       1.713796060344e+04 
       5.738896248486e-03       1.738695608282e+04 
       5.864258338168e-03       1.763210780425e+04 
       5.989782605410e-03       1.787292509515e+04 
       6.115460108212e-03       1.810935055713e+04 
       6.241282580530e-03       1.834158244913e+04 
       6.367242373031e-03       1.856951044603e+04 
       6.493332399793e-03       1.879308494244e+04 
       6.619546090299e-03       1.901261320767e+04 
       6.745877346134e-03       1.922817665592e+04 
       6.872320501893e-03       1.943933506775e+04 
       6.998870289828e-03       1.964705959429e+04 
       7.125521807856e-03       1.985033524384e+04 
       7.252270490557e-03       2.004974509641e+04 
       7.379112082860e-03       2.024503929818e+04 
       7.506042616142e-03       2.043657494199e+04 
       7.633058386485e-03       2.062403083449e+04 
       7.760155934876e-03       2.080757783369e+04 
       7.887332029166e-03       2.098729793236e+04 
       8.014583647598e-03       2.116324985963e+04 
       8.141907963760e-03       2.133555929059e+04 
       8.269302332829e-03       2.150423879656e+04 
       8.396764278972e-03       2.166999082196e+04 
       8.524291483804e-03       2.183134364214e+04 
       8.651881775798e-03       2.198913154540e+04 
       8.779533120562e-03       2.214335353620e+04 
       8.907243611905e-03       2.229417910967e+04 
       9.035011463618e-03       2.244146590114e+04 
       9.162835001905e-03       2.258432729240e+04 
       9.290712658412e-03       2.272568369851e+04 
       9.418642963798e-03       2.286200130669e+04 
       9.546624541796e-03       2.299664886455e+04 
       9.674656103738e-03       2.312720610074e+04 
       9.802736443482e-03       2.325348599509e+04 
       9.930864432731e-03       2.337855434430e+04 
       1.005903901670e-02       2.349944406003e+04 
       1.018725921007e-02       2.361726570772e+04 
       1.031552409332e-02       2.373196519731e+04 
       1.044383280923e-02       2.384362659045e+04 
       1.057218455969e-02       2.395139665773e+04 
       1.070057860274e-02       2.405707157971e+04 
       1.082901424978e-02       2.415945937956e+04 
       1.095749086307e-02       2.426021366909e+04 
       1.108600785328e-02       2.435711779397e+04 
       1.121456467730e-02       2.445120907782e+04 
       1.134316083619e-02       2.454147660125e+04 
       1.147179587328e-02       2.462960895982e+04 
       1.160046937234e-02       2.471561124779e+04 
       1.172918095597e-02       2.479815124430e+04 
       1.185793028404e-02       2.487951246862e+04 
       1.198671705227e-02       2.495699271260e+04 
       1.211554099087e-02       2.503197196783e+04 
       1.224440186334e-02       2.510433997014e+04 
       1.237329946528e-02       2.517412088174e+04 
       1.250223362335e-02       2.524127861942e+04 
       1.263120419427e-02       2.530616572869e+04 
       1.276021106386e-02       2.536828000244e+04 
       1.288925414626e-02       2.542805572427e+04 
       1.301833338307e-02       2.548557222840e+04 
       1.314744874266e-02       2.553952409767e+04 
       1.327660021944e-02       2.559300127900e+04 
       1.340578783332e-02       2.564323982023e+04 
       1.353501162904e-02       2.569134663712e+04 
       1.366427167572e-02       2.573630397377e+04 
       1.379356806633e-02       2.577974770322e+04 
       1.392290091724e-02       2.582183778522e+04 
       1.405227036787e-02       2.585968677708e+04 
       1.418167658025e-02       2.589709669519e+04 
       1.431111973876e-02       2.593249475893e+04 
       1.444060004978e-02       2.596378111533e+04 
       1.457011774145e-02       2.599545337699e+04 
       1.469967306344e-02       2.602413556622e+04 
       1.482926628673e-02       2.604933111568e+04 
       1.495889770345e-02       2.607504142725e+04 
       1.508856762671e-02       2.609664535672e+04 
       1.521827639049e-02       2.611790215084e+04 
       1.534802434955e-02       2.613521570898e+04 
       1.547781187934e-02       2.615243447472e+04 
       1.560763937595e-02       2.616805834394e+04 
       1.573750725609e-02       2.618018645442e+04 
       1.586741595708e-02       2.619117571414e+04 
       1.599736593685e-02       2.620019120360e+04 
       1.612735767399e-02       2.620769970525e+04 
       1.625739166781e-02       2.621438726167e+04 
       1.638746843838e-02       2.621758884194e+04 
       1.651758852665e-02       2.621988862163e+04 
       1.664775249458e-02       2.622034446708e+04 
       1.677796092521e-02       2.621929107961e+04 
       1.690821442284e-02       2.621655062494e+04 
       1.703851361323e-02       2.621241713757e+04 
       1.716885914371e-02       2.620658808959e+04 
       1.729925168344e-02       2.619991093575e+04 
       1.742969192357e-02       2.619067646926e+04 
       1.756018057754e-02       2.617916422345e+04 
       1.769071838127e-02       2.616697259456e+04 
       1.782130609346e-02       2.615345753210e+04 
       1.795194449586e-02       2.613848236094e+04 
       1.808263439357e-02       2.612193014332e+04 
       1.821337661535e-02       2.610405097435e+04 
       1.834417201398e-02       2.608459945064e+04 
       1.847502146657e-02       2.606403462456e+04 
       1.860592587498e-02       2.604199045965e+04 
       1.873688616612e-02       2.601844196987e+04 
       1.886790329244e-02       2.599382844923e+04 
       1.899897823229e-02       2.596869005451e+04 
       1.913011199038e-02       2.594073780374e+04 
       1.926130559823e-02       2.591285261799e+04 
       1.939256011461e-02       2.588288341884e+04 
       1.952387662607e-02       2.585211098922e+04 
       1.965525624745e-02       2.581994194792e+04 
       1.978670012235e-02       2.578579677863e+04 
       1.991820942373e-02       2.575176451027e+04 
       2.004978535444e-02       2.571564127834e+04 
       2.018142914783e-02       2.567893961604e+04 
       2.031314206834e-02       2.564062804409e+04 
       2.044492541212e-02       2.560164786474e+04 
       2.057678050766e-02       2.556164613034e+04 
       2.070870871651e-02       2.552070848950e+04 
       2.084071143391e-02       2.547906461289e+04 
       2.097279008953e-02       2.543605849643e+04 
       2.110494614819e-02       2.539119340934e+04 
       2.123718111064e-02       2.534608770590e+04 
       2.136949651432e-02       2.530001884109e+04 
       2.150189393417e-02       2.525314085775e+04 
       2.163437498348e-02       2.520507948453e+04 
       2.176694131470e-02       2.515630148947e+04 
       2.189959462040e-02       2.510663046216e+04 
       2.203233663411e-02       2.505590535000e+04 
       2.216516913132e-02       2.500491885281e+04 
       2.229809393040e-02       2.495288757418e+04 
       2.243111289366e-02       2.489964642199e+04 
       2.256422792831e-02       2.484507216575e+04 
       2.269744098759e-02       2.479040708218e+04 
       2.283075407185e-02       2.473516217035e+04 
       2.296416922965e-02       2.467865868524e+04 
       2.309768855898e-02       2.462162207090e+04 
       2.323131420843e-02       2.456400060100e+04 
       2.336504837844e-02       2.450577133515e+04 
       2.349889332259e-02       2.444654765984e+04 
       2.363285134892e-02       2.438655662185e+04 
       2.376692482129e-02       2.432615904187e+04 
       2.390111616077e-02       2.426503398428e+04 
       2.403542784715e-02       2.420321523811e+04 
       2.416986242038e-02       2.414077162912e+04 
       2.430442248214e-02       2.407793653867e+04 
       2.443911069743e-02       2.401448345195e+04 
       2.457392979623e-02       2.395011854252e+04 
       2.470888257520e-02       2.388541555935e+04 
       2.484397189943e-02       2.382013908811e+04 
       2.497920070426e-02       2.375433501487e+04 
       2.511457199716e-02       2.368792947718e+04 
       2.525008885965e-02       2.362109150258e+04 
       2.538575444931e-02       2.355373970278e+04 
       2.552157200188e-02       2.348590618425e+04 
       2.565754483332e-02       2.341763678896e+04 
       2.579367634212e-02       2.334920053787e+04 
       2.592997001151e-02       2.327962109135e+04 
       2.606642941184e-02       2.320990693027e+04 
       2.620305820306e-02       2.313995235523e+04 
       2.633986013718e-02       2.306959984433e+04 
       2.647683906098e-02       2.299897992795e+04 
       2.661399891864e-02       2.292715558167e+04 
       2.675134375456e-02       2.285559937808e+04 
       2.688887771631e-02       2.278355637251e+04 
       2.702660505758e-02       2.271161076219e+04 
       2.716453014133e-02       2.263843999444e+04 
       2.730265744302e-02       2.256546388257e+04 
       2.744099155392e-02       2.249231820899e+04 
       2.757953718462e-02       2.241845658117e+04 
       2.771829916862e-02       2.234467462975e+04 
       2.785728246602e-02       2.227042305713e+04 
       2.799649216747e-02       2.219588106706e+04 
       2.813593349810e-02       2.212101802105e+04 
       2.827561182175e-02       2.204581823114e+04 
       2.841553264527e-02       2.197051058639e+04 
       2.855570162303e-02       2.189492771441e+04 
       2.869612456159e-02       2.181932354600e+04 
       2.883680742456e-02       2.174321148470e+04 
       2.897775633761e-02       2.166712163194e+04 
       2.911897759377e-02       2.159044600754e+04 
       2.926047765885e-02       2.151376501846e+04 
       2.940226317715e-02       2.143708210681e+04 
       2.954434097733e-02       2.136021280404e+04 
       2.968671807859e-02       2.128291831938e+04 
       2.982940169707e-02       2.120581772909e+04 
       2.997239925255e-02       2.112841105291e+04 
       3.011571837536e-02       2.105074152909e+04 
       3.025936691367e-02       2.097278170973e+04 
       3.040335294103e-02       2.089490507634e+04 
       3.054768476429e-02       2.081703671862e+04 
       3.069237093179e-02       2.073898565039e+04 
       3.083742024202e-02       2.066082995599e+04 
       3.098284175254e-02       2.058235207238e+04 
       3.112864478937e-02       2.050398776356e+04 
       3.127483895683e-02       2.042551065179e+04 
       3.142143414777e-02       2.034715956906e+04 
       3.156844055427e-02       2.026833807758e+04 
       3.171586867891e-02       2.018955079743e+04 
       3.186372934646e-02       2.011078109617e+04 
       3.201203371624e-02       2.003207510211e+04 
       3.216079329496e-02       1.995324727080e+04 
       3.231001995028e-02       1.987416982263e+04 
       3.245972592493e-02       1.979533771059e+04 
       3.260992385162e-02       1.971613697020e+04 
       3.276062676862e-02       1.963710075914e+04 
       3.291184813615e-02       1.955835650277e+04 
       3.306360185363e-02       1.947926647097e+04 
       3.321590227772e-02       1.940007338268e+04 
       3.336876424139e-02       1.932091463505e+04 
       3.352220307396e-02       1.924183751008e+04 
       3.367623462216e-02       1.916270920235e+04 
       3.383087527235e-02       1.908377246360e+04 
       3.398614197392e-02       1.900445847437e+04 
       3.414205226398e-02       1.892540605718e+04 
       3.429862429340e-02       1.884632091389e+04 
       3.445587685430e-02       1.876728015146e+04 
       3.461382940907e-02       1.868832128903e+04 
       3.477250212108e-02       1.860913379267e+04 
       3.493191588715e-02       1.853027289164e+04 
       3.509209237183e-02       1.845126709343e+04 
       3.525305404386e-02       1.837216376011e+04 
       3.541482421463e-02       1.829324731748e+04 
       3.557742707906e-02       1.821435669902e+04 
       3.574088775895e-02       1.813550484634e+04 
       3.590523234901e-02       1.805666065011e+04 
       3.607048796575e-02       1.797789200164e+04 
       3.623668279945e-02       1.789912176579e+04 
       3.640384616950e-02       1.782040772800e+04 
       3.657200858332e-02       1.774170124931e+04 
       3.674120179907e-02       1.766305853928e+04 
       3.691145889268e-02       1.758442129763e+04 
       3.708281432923e-02       1.750593671458e+04 
       3.725530403931e-02       1.742735265240e+04 
       3.742896550064e-02       1.734883520915e+04 
       3.760383782538e-02       1.727036383374e+04 
       3.777996185367e-02       1.719189655414e+04 
       3.795738025392e-02       1.711356843171e+04 
       3.813613763040e-02       1.703515419614e+04 
       3.831628063877e-02       1.695687751129e+04 
       3.849785811040e-02       1.687858439503e+04 
       3.868092118604e-02       1.680045175546e+04 
       3.886552345993e-02       1.672197559232e+04 
       3.905172113517e-02       1.664383431491e+04 
       3.923957319149e-02       1.656563438936e+04 
       3.942914156663e-02       1.648748923087e+04 
       3.962049135259e-02       1.640928295711e+04 
       3.981369100827e-02       1.633114244472e+04 
       4.000881259023e-02       1.625289991126e+04 
       4.020593200324e-02       1.617478444902e+04 
       4.040512927287e-02       1.609658725377e+04 
       4.060648884236e-02       1.601841952547e+04 
       4.081009989644e-02       1.594034365094e+04 
       4.101605671492e-02       1.586193704246e+04 
       4.122445905957e-02       1.578368661384e+04 
       4.143541259797e-02       1.570537037687e+04 
       4.164902936844e-02       1.562702483852e+04 
       4.186542829128e-02       1.554859745358e+04 
       4.208473573134e-02       1.547014149123e+04 
       4.230708611867e-02       1.539160413955e+04 
       4.253262263418e-02       1.531294619574e+04 
       4.276149796855e-02       1.523414404936e+04 
       4.299387516404e-02       1.515527956579e+04 
       4.322992854991e-02       1.507661262722e+04 
       4.346984478423e-02       1.499722394538e+04 
       4.371382401646e-02       1.491793589765e+04 
       4.396208118796e-02       1.483842411308e+04 
       4.421484748998e-02       1.475894514671e+04 
       4.447237200228e-02       1.467925667160e+04 
       4.473492353932e-02       1.459894595948e+04 
       4.500279273580e-02       1.451879996827e+04 
       4.527629440888e-02       1.443804414777e+04 
       4.555577024147e-02       1.435733143240e+04 
       4.584159183909e-02       1.427609685501e+04 
       4.613416422301e-02       1.419470270313e+04 
       4.643392983460e-02       1.411244997095e+04 
       4.674137314095e-02       1.403022677295e+04 
       4.705702595022e-02       1.394743266065e+04 
       4.738147356828e-02       1.386427101421e+04 
       4.771536195619e-02       1.378052701128e+04 
       4.805940608358e-02       1.369602416167e+04 
       4.841439971719e-02       1.361069207589e+04 
       4.878122693869e-02       1.352483119328e+04 
       4.916087575626e-02       1.343840205936e+04 
       4.955445426206e-02       1.335112456441e+04 
       4.996320989987e-02       1.326251248041e+04 
       5.038855254949e-02       1.317351693040e+04 
       5.083208231554e-02       1.308270269801e+04 
       5.129562313990e-02       1.299118113581e+04 
       5.178126365092e-02       1.289745264896e+04 
       5.229140703557e-02       1.280311020858e+04 
       5.282883218880e-02       1.270636410251e+04 
       5.339676897302e-02       1.260781287022e+04 
       5.399899111423e-02       1.250671535254e+04 
       5.463993105054e-02       1.240259727116e+04 
       5.532482185227e-02       1.229604481111e+04 
       5.605987194411e-02       1.218557031670e+04 
       5.685247831000e-02       1.207036257524e+04 
       5.771148217943e-02       1.194997224027e+04 
       5.864746595659e-02       1.182335379592e+04 
       5.967307776967e-02       1.168811472764e+04 
       6.080334423045e-02       1.154286685376e+04 
       6.205588313871e-02       1.138493784075e+04 
