# Matter power spectrum P(k) at redshift z=0
# for k=1.04383e-05 to 0.627318 h/Mpc,
# number of wavenumbers equal to 560
#    1:k (h/Mpc)              2:P (Mpc/h)^3        
       1.043826635766e-05       5.124848135169e+01 
       2.332539659098e-05       1.112961911845e+02 
       3.625784574880e-05       1.703115333735e+02 
       4.927044303056e-05       2.289224363585e+02 
       6.239859386710e-05       2.874874307165e+02 
       7.567859592279e-05       3.462759746307e+02 
       8.914796520586e-05       4.055190134385e+02 
       1.028457766286e-04       4.654296891519e+02 
       1.168130233915e-04       5.262139657124e+02 
       1.310929996005e-04       5.880770679090e+02 
       1.457317105302e-04       6.512279684799e+02 
       1.607783148880e-04       7.158828791258e+02 
       1.762856032533e-04       7.822682507615e+02 
       1.923105164929e-04       8.506234960987e+02 
       2.089147072929e-04       9.212036259109e+02 
       2.261651468594e-04       9.942818468510e+02 
       2.441347771681e-04       1.070152151571e+03 
       2.629032066481e-04       1.149131975514e+03 
       2.825574436133e-04       1.231564808208e+03 
       3.031926567560e-04       1.317822786827e+03 
       3.249129452247e-04       1.408309177449e+03 
       3.478320918047e-04       1.503460591628e+03 
       3.720742611385e-04       1.603748787580e+03 
       3.977745904934e-04       1.709681847706e+03 
       4.250796033542e-04       1.821804370459e+03 
       4.541473566052e-04       1.940696389025e+03 
       4.851472116641e-04       2.066970509898e+03 
       5.182591012055e-04       2.201266802175e+03 
       5.536721502222e-04       2.344244914929e+03 
       5.915825090348e-04       2.496572938988e+03 
       6.321902739163e-04       2.658912626806e+03 
       6.756954162197e-04       2.831900849739e+03 
       7.222927197233e-04       3.016127484722e+03 
       7.721658400030e-04       3.212110441595e+03 
       8.254807421489e-04       3.420269147324e+03 
       8.823789255954e-04       3.640898310256e+03 
       9.429709770700e-04       3.874144251245e+03 
       1.007331067634e-03       4.119986451953e+03 
       1.075492993902e-03       4.378226538468e+03 
       1.147448239900e-03       4.648486476339e+03 
       1.223146315259e-03       4.930216735724e+03 
       1.302497347351e-03       5.222713791083e+03 
       1.385376628562e-03       5.525125013976e+03 
       1.471630604468e-03       5.836516002945e+03 
       1.561083674481e-03       6.155909585070e+03 
       1.653545173769e-03       6.482273404946e+03 
       1.748815995326e-03       6.814569109248e+03 
       1.846694457725e-03       7.151776387330e+03 
       1.946981187571e-03       7.492912593740e+03 
       2.049482934299e-03       7.837047284698e+03 
       2.154015349974e-03       8.183311597435e+03 
       2.260404842352e-03       8.530904631759e+03 
       2.368489648894e-03       8.879095469567e+03 
       2.478120290682e-03       9.227222432750e+03 
       2.589159557612e-03       9.574691372282e+03 
       2.701482157884e-03       9.920972899135e+03 
       2.814974142035e-03       1.026559615396e+04 
       2.929532188598e-03       1.060814463884e+04 
       3.045062817363e-03       1.094825849571e+04 
       3.161481578288e-03       1.128561342391e+04 
       3.278712249535e-03       1.161993295309e+04 
       3.396686066856e-03       1.195097683279e+04 
       3.515340998013e-03       1.227853423977e+04 
       3.634621069758e-03       1.260242552255e+04 
       3.754475750511e-03       1.292249780166e+04 
       3.874859388868e-03       1.323861768234e+04 
       3.995730706171e-03       1.355067590724e+04 
       4.117052340111e-03       1.385857768722e+04 
       4.238790435739e-03       1.416224646303e+04 
       4.360914279896e-03       1.446162155904e+04 
       4.483395975098e-03       1.475664907437e+04 
       4.606210148950e-03       1.504729233784e+04 
       4.729333695451e-03       1.533351199589e+04 
       4.852745544748e-03       1.561527311912e+04 
       4.976426458229e-03       1.589262149573e+04 
       5.100358846129e-03       1.616549748770e+04 
       5.224526605090e-03       1.643392681216e+04 
       5.348914973418e-03       1.669795594135e+04 
       5.473510401995e-03       1.695757394541e+04 
       5.598300439062e-03       1.721272680679e+04 
       5.723273627281e-03       1.746291144097e+04 
       5.848419411662e-03       1.770924143873e+04 
       5.973728057134e-03       1.795102352498e+04 
       6.099190574643e-03       1.818868131894e+04 
       6.224798654842e-03       1.842217290770e+04 
       6.350544608494e-03       1.865123990718e+04 
       6.476421312871e-03       1.887583694301e+04 
       6.602422163458e-03       1.909636558665e+04 
       6.728541030409e-03       1.931285383107e+04 
       6.854772219220e-03       1.952520151165e+04 
       6.981110435178e-03       1.973375796524e+04 
       7.107550751175e-03       1.993788058580e+04 
       7.234088578549e-03       2.013807732270e+04 
       7.360719640612e-03       2.033433131437e+04 
       7.487439948614e-03       2.052662957442e+04 
       7.614245779873e-03       2.071509401894e+04 
       7.741133657869e-03       2.089934475273e+04 
       7.868100334094e-03       2.107990202707e+04 
       7.995142771489e-03       2.125647046941e+04 
       8.122258129315e-03       2.142957400564e+04 
       8.249443749318e-03       2.159902056996e+04 
       8.376697143058e-03       2.176539854275e+04 
       8.504015980303e-03       2.192744513317e+04 
       8.631398078385e-03       2.208587887968e+04 
       8.758841392419e-03       2.224071519717e+04 
       8.886344006321e-03       2.239201053900e+04 
       9.013904124543e-03       2.253918516351e+04 
       9.141520064467e-03       2.268430163263e+04 
       9.269190249391e-03       2.282435909274e+04 
       9.396913202067e-03       2.296207256739e+04 
       9.524687538732e-03       2.309719019423e+04 
       9.652511963601e-03       2.322815770959e+04 
       9.780385263769e-03       2.335598246199e+04 
       9.908306304502e-03       2.348042861772e+04 
       1.003627402488e-02       2.360063896995e+04 
       1.016428743374e-02       2.372008842169e+04 
       1.029234560598e-02       2.383507234649e+04 
       1.042044767903e-02       2.394712040276e+04 
       1.054859284967e-02       2.405589495529e+04 
       1.067678037104e-02       2.416191296343e+04 
       1.080500954985e-02       2.426397781615e+04 
       1.093327974383e-02       2.436410715473e+04 
       1.106159035930e-02       2.446208189343e+04 
       1.118994084897e-02       2.455548256873e+04 
       1.131833070986e-02       2.464689747352e+04 
       1.144675948140e-02       2.473601020143e+04 
       1.157522674359e-02       2.482123856535e+04 
       1.170373211538e-02       2.490545615024e+04 
       1.183227525309e-02       2.498572404995e+04 
       1.196085584901e-02       2.506227518802e+04 
       1.208947363001e-02       2.513847273760e+04 
       1.221812835633e-02       2.521098428205e+04 
       1.234681982041e-02       2.528034413244e+04 
       1.247554784581e-02       2.534822905235e+04 
       1.260431228622e-02       2.541300710036e+04 
       1.273311302452e-02       2.547518181904e+04 
       1.286194997194e-02       2.553518207924e+04 
       1.299082306724e-02       2.559263715807e+04 
       1.311973227599e-02       2.564758423086e+04 
       1.324867758987e-02       2.569929162408e+04 
       1.337765902607e-02       2.575034594011e+04 
       1.350667662667e-02       2.579812863662e+04 
       1.363573045816e-02       2.584423909479e+04 
       1.376482061089e-02       2.588765667581e+04 
       1.389394719869e-02       2.592852865403e+04 
       1.402311035839e-02       2.596795212604e+04 
       1.415231024952e-02       2.600392107436e+04 
       1.428154705393e-02       2.603825985023e+04 
       1.441082097550e-02       2.607109147627e+04 
       1.454013223990e-02       2.610149954620e+04 
       1.466948109431e-02       2.612937737566e+04 
       1.479886780724e-02       2.615625427306e+04 
       1.492829266836e-02       2.618113074898e+04 
       1.505775598831e-02       2.620283668225e+04 
       1.518725809862e-02       2.622386436322e+04 
       1.531679935157e-02       2.624230170814e+04 
       1.544638012014e-02       2.625911890547e+04 
       1.557600079795e-02       2.627368776553e+04 
       1.570566179921e-02       2.628526815244e+04 
       1.583536355874e-02       2.629714912029e+04 
       1.596510653197e-02       2.630627866785e+04 
       1.609489119496e-02       2.631364432631e+04 
       1.622471804445e-02       2.631928811859e+04 
       1.635458759798e-02       2.632305125987e+04 
       1.648450039391e-02       2.632395068815e+04 
       1.661445699156e-02       2.632422201235e+04 
       1.674445797136e-02       2.632344961342e+04 
       1.687450393497e-02       2.632004251560e+04 
       1.700459550543e-02       2.631546722360e+04 
       1.713473332736e-02       2.631026391456e+04 
       1.726491806718e-02       2.630148132648e+04 
       1.739515041325e-02       2.629295662599e+04 
       1.752543107619e-02       2.628126648894e+04 
       1.765576078907e-02       2.626969294828e+04 
       1.778614030768e-02       2.625494491910e+04 
       1.791657041085e-02       2.623959782041e+04 
       1.804705190068e-02       2.622278227577e+04 
       1.817758560294e-02       2.620426556113e+04 
       1.830817236730e-02       2.618480407117e+04 
       1.843881306779e-02       2.616407914629e+04 
       1.856950860306e-02       2.614141601837e+04 
       1.870025989684e-02       2.611737126355e+04 
       1.883106789827e-02       2.609345688226e+04 
       1.896193358240e-02       2.606703219958e+04 
       1.909285795053e-02       2.603843124522e+04 
       1.922384203073e-02       2.601065435919e+04 
       1.935488687827e-02       2.597924974912e+04 
       1.948599357614e-02       2.594852306495e+04 
       1.961716323550e-02       2.591557637172e+04 
       1.974839699628e-02       2.588166432037e+04 
       1.987969602764e-02       2.584683443275e+04 
       2.001106152858e-02       2.581095461329e+04 
       2.014249472854e-02       2.577355560424e+04 
       2.027399688795e-02       2.573580645058e+04 
       2.040556929886e-02       2.569643291370e+04 
       2.053721328562e-02       2.565571376516e+04 
       2.066893020551e-02       2.561452258468e+04 
       2.080072144946e-02       2.557193011785e+04 
       2.093258844269e-02       2.552787421917e+04 
       2.106453264552e-02       2.548357346106e+04 
       2.119655555409e-02       2.543833528228e+04 
       2.132865870112e-02       2.539115915817e+04 
       2.146084365675e-02       2.534381487294e+04 
       2.159311202934e-02       2.529537239193e+04 
       2.172546546635e-02       2.524582108763e+04 
       2.185790565521e-02       2.519599925225e+04 
       2.199043432421e-02       2.514469545930e+04 
       2.212305324347e-02       2.509290585353e+04 
       2.225576422592e-02       2.503994746935e+04 
       2.238856912823e-02       2.498697571201e+04 
       2.252146985192e-02       2.493210660388e+04 
       2.265446834437e-02       2.487756915257e+04 
       2.278756659993e-02       2.482157255458e+04 
       2.292076666106e-02       2.476488107712e+04 
       2.305407061947e-02       2.470677253965e+04 
       2.318748061734e-02       2.464860357958e+04 
       2.332099884856e-02       2.458969903371e+04 
       2.345462755999e-02       2.453007328186e+04 
       2.358836905280e-02       2.446977852517e+04 
       2.372222568381e-02       2.440887002756e+04 
       2.385619986692e-02       2.434764649257e+04 
       2.399029407451e-02       2.428502771626e+04 
       2.412451083899e-02       2.422247735668e+04 
       2.425885275431e-02       2.415861216485e+04 
       2.439332247754e-02       2.409454828691e+04 
       2.452792273054e-02       2.403030456057e+04 
       2.466265630167e-02       2.396467835515e+04 
       2.479752604749e-02       2.389888223975e+04 
       2.493253489459e-02       2.383299789928e+04 
       2.506768584150e-02       2.376617390460e+04 
       2.520298196055e-02       2.369878175867e+04 
       2.533842639993e-02       2.363045942934e+04 
       2.547402238570e-02       2.356258466051e+04 
       2.560977322395e-02       2.349333952522e+04 
       2.574568230301e-02       2.342436861384e+04 
       2.588175309568e-02       2.335440792346e+04 
       2.601798916165e-02       2.328419173638e+04 
       2.615439414988e-02       2.321355907885e+04 
       2.629097180116e-02       2.314288487935e+04 
       2.642772595070e-02       2.307123169072e+04 
       2.656466053082e-02       2.299952155233e+04 
       2.670177957376e-02       2.292750382233e+04 
       2.683908721458e-02       2.285476536200e+04 
       2.697658769414e-02       2.278183139066e+04 
       2.711428536221e-02       2.270885956903e+04 
       2.725218468070e-02       2.263527826298e+04 
       2.739029022696e-02       2.256127141147e+04 
       2.752860669727e-02       2.248703429548e+04 
       2.766713891042e-02       2.241257794285e+04 
       2.780589181142e-02       2.233780781832e+04 
       2.794487047535e-02       2.226275273468e+04 
       2.808408011136e-02       2.218743834999e+04 
       2.822352606686e-02       2.211177298277e+04 
       2.836321383178e-02       2.203599943813e+04 
       2.850314904310e-02       2.195990343189e+04 
       2.864333748945e-02       2.188366183420e+04 
       2.878378511601e-02       2.180718378901e+04 
       2.892449802948e-02       2.173056507446e+04 
       2.906548250334e-02       2.165345091912e+04 
       2.920674498329e-02       2.157649721251e+04 
       2.934829209287e-02       2.149912893672e+04 
       2.949013063940e-02       2.142165325191e+04 
       2.963226762006e-02       2.134398429267e+04 
       2.977471022830e-02       2.126629671447e+04 
       2.991746586048e-02       2.118836337022e+04 
       3.006054212283e-02       2.111008794732e+04 
       3.020394683862e-02       2.103216507041e+04 
       3.034768805572e-02       2.095359230083e+04 
       3.049177405449e-02       2.087514227517e+04 
       3.063621335592e-02       2.079651376780e+04 
       3.078101473025e-02       2.071788999971e+04 
       3.092618720588e-02       2.063917942739e+04 
       3.107174007872e-02       2.056022335157e+04 
       3.121768292194e-02       2.048115521494e+04 
       3.136402559621e-02       2.040219957413e+04 
       3.151077826037e-02       2.032302669940e+04 
       3.165795138258e-02       2.024386609581e+04 
       3.180555575205e-02       2.016454167082e+04 
       3.195360249126e-02       2.008532646428e+04 
       3.210210306882e-02       2.000578053668e+04 
       3.225106931292e-02       1.992673562436e+04 
       3.240051342544e-02       1.984708616954e+04 
       3.255044799675e-02       1.976758638295e+04 
       3.270088602123e-02       1.968817728543e+04 
       3.285184091362e-02       1.960870756672e+04 
       3.300332652615e-02       1.952915562548e+04 
       3.315535716655e-02       1.944966679081e+04 
       3.330794761700e-02       1.936993309646e+04 
       3.346111315407e-02       1.929063044575e+04 
       3.361486956973e-02       1.921082063622e+04 
       3.376923319343e-02       1.913130932230e+04 
       3.392422091542e-02       1.905168497036e+04 
       3.407985021131e-02       1.897229382976e+04 
       3.423613916800e-02       1.889267408910e+04 
       3.439310651101e-02       1.881316722513e+04 
       3.455077163342e-02       1.873377295056e+04 
       3.470915462640e-02       1.865433602328e+04 
       3.486827631152e-02       1.857475412835e+04 
       3.502815827491e-02       1.849536899539e+04 
       3.518882290346e-02       1.841593796645e+04 
       3.535029342318e-02       1.833664437527e+04 
       3.551259393983e-02       1.825731268800e+04 
       3.567574948210e-02       1.817788123415e+04 
       3.583978604734e-02       1.809873948152e+04 
       3.600473065026e-02       1.801959976341e+04 
       3.617061137464e-02       1.794030588249e+04 
       3.633745742836e-02       1.786118926784e+04 
       3.650529920201e-02       1.778209116881e+04 
       3.667416833133e-02       1.770291307514e+04 
       3.684409776382e-02       1.762396114986e+04 
       3.701512182977e-02       1.754502967663e+04 
       3.718727631825e-02       1.746608186449e+04 
       3.736059855824e-02       1.738715485679e+04 
       3.753512750548e-02       1.730831316252e+04 
       3.771090383552e-02       1.722947511666e+04 
       3.788797004343e-02       1.715086592552e+04 
       3.806637055077e-02       1.707195820200e+04 
       3.824615182056e-02       1.699322479536e+04 
       3.842736248075e-02       1.691469694602e+04 
       3.861005345728e-02       1.683601303290e+04 
       3.879427811719e-02       1.675725491916e+04 
       3.898009242322e-02       1.667862473054e+04 
       3.916755510050e-02       1.660008238960e+04 
       3.935672781684e-02       1.652139575289e+04 
       3.954767537784e-02       1.644301333091e+04 
       3.974046593819e-02       1.636435591281e+04 
       3.993517123100e-02       1.628589590368e+04 
       4.013186681676e-02       1.620736519387e+04 
       4.033063235424e-02       1.612887174466e+04 
       4.053155189543e-02       1.605029084892e+04 
       4.073471420718e-02       1.597176542202e+04 
       4.094021312258e-02       1.589316146763e+04 
       4.114814792518e-02       1.581457346562e+04 
       4.135862376996e-02       1.573591449304e+04 
       4.157175214514e-02       1.565719668270e+04 
       4.178765137972e-02       1.557852160097e+04 
       4.200644720228e-02       1.549952413921e+04 
       4.222827335702e-02       1.542080114158e+04 
       4.245327228451e-02       1.534177993055e+04 
       4.268159587502e-02       1.526271502659e+04 
       4.291340630403e-02       1.518360298865e+04 
       4.314887696051e-02       1.510429340809e+04 
       4.338819348074e-02       1.502489846182e+04 
       4.363155490175e-02       1.494518601561e+04 
       4.387917495150e-02       1.486543870925e+04 
       4.413128349502e-02       1.478554442652e+04 
       4.438812815956e-02       1.470536600597e+04 
       4.464997616531e-02       1.462517783022e+04 
       4.491711639313e-02       1.454439637064e+04 
       4.518986172622e-02       1.446350547359e+04 
       4.546855170974e-02       1.438235617167e+04 
       4.575355558004e-02       1.430083221121e+04 
       4.604527572570e-02       1.421911166049e+04 
       4.634415165433e-02       1.413681369520e+04 
       4.665066455415e-02       1.405421674566e+04 
       4.696534255744e-02       1.397136155494e+04 
       4.728876683578e-02       1.388731398168e+04 
       4.762157868468e-02       1.380376160758e+04 
       4.796448779005e-02       1.371883669791e+04 
       4.831828191257e-02       1.363367357873e+04 
       4.868383828040e-02       1.354778740767e+04 
       4.906213704928e-02       1.346084365041e+04 
       4.945427727631e-02       1.337343391460e+04 
       4.986149596342e-02       1.328461134214e+04 
       5.028519086702e-02       1.319518906598e+04 
       5.072694794874e-02       1.310461940293e+04 
       5.118857456984e-02       1.301249420484e+04 
       5.167213982168e-02       1.291891447284e+04 
       5.218002375199e-02       1.282432554722e+04 
       5.271497770839e-02       1.272737941533e+04 
       5.328019859147e-02       1.262871376567e+04 
       5.387942049629e-02       1.252758711470e+04 
       5.451702800476e-02       1.242387299332e+04 
       5.519819619704e-02       1.231666043847e+04 
       5.592906307991e-02       1.220633225851e+04 
       5.671694013844e-02       1.209113515943e+04 
       5.757056516957e-02       1.197089787557e+04 
       5.850039660591e-02       1.184441399757e+04 
       5.951893671644e-02       1.170965058070e+04 
       6.064104631128e-02       1.156496919881e+04 
       6.188416641999e-02       1.140755761976e+04 
