# Matter power spectrum P(k) at redshift z=0
# for k=1.08243e-05 to 0.651284 h/Mpc,
# number of wavenumbers equal to 559
#    1:k (h/Mpc)              2:P (Mpc/h)^3        
       1.082431557321e-05       4.630043795443e+01 
       2.418524333239e-05       1.005392909512e+02 
       3.759667334173e-05       1.538597526368e+02 
       5.109743623328e-05       2.068391669672e+02 
       6.472705279618e-05       2.598117975025e+02 
       7.852611301260e-05       3.130319011900e+02 
       9.253666808400e-05       3.667195839249e+02 
       1.068026410241e-04       4.210797264561e+02 
       1.213702614341e-04       4.763118013422e+02 
       1.362885301114e-04       5.326159297416e+02 
       1.516097191272e-04       5.901971905545e+02 
       1.673899128901e-04       6.492690531452e+02 
       1.836895953979e-04       7.100563889613e+02 
       2.005742882668e-04       7.727982698001e+02 
       2.181152430513e-04       8.377506953259e+02 
       2.363901896326e-04       9.051893136051e+02 
       2.554841397778e-04       9.754121719430e+02 
       2.754902410253e-04       1.048742479550e+03 
       2.965106703901e-04       1.125531366402e+03 
       3.186575495119e-04       1.206160545600e+03 
       3.420538522181e-04       1.291044782023e+03 
       3.668342614885e-04       1.380633980008e+03 
       3.931459150411e-04       1.475414675550e+03 
       4.211489571039e-04       1.575910591726e+03 
       4.510167888974e-04       1.682681903786e+03 
       4.829358835308e-04       1.796322698189e+03 
       5.171050056254e-04       1.917456124764e+03 
       5.537336574331e-04       2.046726583502e+03 
       5.930395694679e-04       2.184788473492e+03 
       6.352450749847e-04       2.332291024480e+03 
       6.805722652411e-04       2.489859014633e+03 
       7.292369255672e-04       2.658069631833e+03 
       7.814414032880e-04       2.837426268600e+03 
       8.373667474736e-04       3.028330695890e+03 
       8.971646604245e-04       3.231055764824e+03 
       9.609499681021e-04       3.445721206617e+03 
       1.028794399093e-03       3.672275392442e+03 
       1.100722414479e-03       3.910485572520e+03 
       1.176709636997e-03       4.159938145448e+03 
       1.256684111608e-03       4.420049672863e+03 
       1.340530255745e-03       4.690087478877e+03 
       1.428095012208e-03       4.969188254646e+03 
       1.519195477906e-03       5.256388645144e+03 
       1.613627189855e-03       5.550719034517e+03 
       1.711172303435e-03       5.851159247718e+03 
       1.811607057661e-03       6.156694201061e+03 
       1.914708132733e-03       6.466337016211e+03 
       2.020257714368e-03       6.779146158779e+03 
       2.128047252143e-03       7.094238176315e+03 
       2.237880019515e-03       7.410794962309e+03 
       2.349572651474e-03       7.728068021074e+03 
       2.462955861491e-03       8.045378834752e+03 
       2.577874535395e-03       8.362117489540e+03 
       2.694187378344e-03       8.677739391170e+03 
       2.811766261644e-03       8.991760770809e+03 
       2.930495385348e-03       9.303754962726e+03 
       3.050270344172e-03       9.613346652504e+03 
       3.170997159951e-03       9.920208014945e+03 
       3.292591324382e-03       1.022405274294e+04 
       3.414976880608e-03       1.052463395180e+04 
       3.538085561020e-03       1.082173698519e+04 
       3.661855990490e-03       1.111517883298e+04 
       3.786232958626e-03       1.140480188984e+04 
       3.911166760865e-03       1.169047562331e+04 
       4.036612605771e-03       1.197208549676e+04 
       4.162530084494e-03       1.224954553176e+04 
       4.288882697575e-03       1.252277043257e+04 
       4.415637433987e-03       1.279170577498e+04 
       4.542764397323e-03       1.305630119880e+04 
       4.670236474228e-03       1.331652379037e+04 
       4.798029040495e-03       1.357234469532e+04 
       4.926119700610e-03       1.382373480905e+04 
       5.054488056908e-03       1.407070933948e+04 
       5.183115504911e-03       1.431324095175e+04 
       5.311985051756e-03       1.455134771046e+04 
       5.441081155008e-03       1.478508712154e+04 
       5.570389579413e-03       1.501440858052e+04 
       5.699897269494e-03       1.523936453542e+04 
       5.829592236087e-03       1.545994938913e+04 
       5.959463455193e-03       1.567619998139e+04 
       6.089500777686e-03       1.588814663272e+04 
       6.219694848619e-03       1.609581742272e+04 
       6.350037035003e-03       1.629925139496e+04 
       6.480519361100e-03       1.649848702212e+04 
       6.611134450355e-03       1.669355342287e+04 
       6.741875473231e-03       1.688450221664e+04 
       6.872736100270e-03       1.707136941890e+04 
       7.003710459816e-03       1.725418612470e+04 
       7.134793099873e-03       1.743307478178e+04 
       7.265978953663e-03       1.760789235365e+04 
       7.397263308465e-03       1.777885803586e+04 
       7.528641777412e-03       1.794598751681e+04 
       7.660110273907e-03       1.810927911700e+04 
       7.791664988412e-03       1.826881695238e+04 
       7.923302367339e-03       1.842461865236e+04 
       8.055019093852e-03       1.857675213167e+04 
       8.186812070374e-03       1.872523787380e+04 
       8.318678402630e-03       1.887013868499e+04 
       8.450615385080e-03       1.901147567371e+04 
       8.582620487606e-03       1.914933612091e+04 
       8.714691343329e-03       1.928375198719e+04 
       8.846825737446e-03       1.941473535926e+04 
       8.979021597001e-03       1.954240089170e+04 
       9.111276981493e-03       1.966670973932e+04 
       9.243590074253e-03       1.978777424780e+04 
       9.375959174510e-03       1.990564283050e+04 
       9.508382690091e-03       2.002025777147e+04 
       9.640859130700e-03       2.013171187987e+04 
       9.773387101720e-03       2.024013715527e+04 
       9.905965298495e-03       2.034550384685e+04 
       1.003859250105e-02       2.044787035968e+04 
       1.017126756922e-02       2.054726878044e+04 
       1.030398943812e-02       2.064374304554e+04 
       1.043675711402e-02       2.073735130481e+04 
       1.056956967041e-02       2.082809158804e+04 
       1.070242624450e-02       2.091610826151e+04 
       1.083532603384e-02       2.100127373730e+04 
       1.096826829330e-02       2.108374120497e+04 
       1.110125233216e-02       2.116357801798e+04 
       1.123427751152e-02       2.124075729793e+04 
       1.136734324180e-02       2.131534317560e+04 
       1.150044898048e-02       2.138735579503e+04 
       1.163359422996e-02       2.145686329104e+04 
       1.176677853561e-02       2.152387943241e+04 
       1.190000148393e-02       2.158841112893e+04 
       1.203326270085e-02       2.165057015233e+04 
       1.216656185014e-02       2.171036992305e+04 
       1.229989863194e-02       2.176781762782e+04 
       1.243327278140e-02       2.182296213407e+04 
       1.256668406743e-02       2.187584630930e+04 
       1.270013229147e-02       2.192648464760e+04 
       1.283361728643e-02       2.197492874873e+04 
       1.296713891569e-02       2.202120868032e+04 
       1.310069707210e-02       2.206536053455e+04 
       1.323429167718e-02       2.210743176894e+04 
       1.336792268026e-02       2.214743203491e+04 
       1.350159005773e-02       2.218536712704e+04 
       1.363529381239e-02       2.222131726541e+04 
       1.376903397278e-02       2.225528440852e+04 
       1.390281059261e-02       2.228733460288e+04 
       1.403662375020e-02       2.231746880378e+04 
       1.417047354803e-02       2.234574158588e+04 
       1.430436011225e-02       2.237213738326e+04 
       1.443828359228e-02       2.239672471177e+04 
       1.457224416046e-02       2.241952269853e+04 
       1.470624201167e-02       2.244054652995e+04 
       1.484027736308e-02       2.245985783065e+04 
       1.497435045385e-02       2.247745913185e+04 
       1.510846154493e-02       2.249337375278e+04 
       1.524261091878e-02       2.250765546258e+04 
       1.537679887930e-02       2.252034444915e+04 
       1.551102575157e-02       2.253134169146e+04 
       1.564529188180e-02       2.254085476004e+04 
       1.577959763722e-02       2.254878075143e+04 
       1.591394340598e-02       2.255520619831e+04 
       1.604832959714e-02       2.256014429085e+04 
       1.618275664058e-02       2.256360657490e+04 
       1.631722498706e-02       2.256561674350e+04 
       1.645173510822e-02       2.256620672381e+04 
       1.658628749658e-02       2.256541082288e+04 
       1.672088266565e-02       2.256324039080e+04 
       1.685552114995e-02       2.255972566840e+04 
       1.699020350515e-02       2.255487535666e+04 
       1.712493030819e-02       2.254872740403e+04 
       1.725970215737e-02       2.254131013285e+04 
       1.739451967252e-02       2.253260023305e+04 
       1.752938349518e-02       2.252266625077e+04 
       1.766429428880e-02       2.251155591326e+04 
       1.779925273890e-02       2.249922314179e+04 
       1.793425955333e-02       2.248575937335e+04 
       1.806931546247e-02       2.247107575235e+04 
       1.820442121955e-02       2.245526344097e+04 
       1.833957760084e-02       2.243843140562e+04 
       1.847478540600e-02       2.242045120380e+04 
       1.861004545837e-02       2.240143841424e+04 
       1.874535860528e-02       2.238123016014e+04 
       1.888072571841e-02       2.236008805311e+04 
       1.901614769411e-02       2.233799108082e+04 
       1.915162545384e-02       2.231479640485e+04 
       1.928715994447e-02       2.229057680959e+04 
       1.942275213877e-02       2.226567121943e+04 
       1.955840303580e-02       2.223962980359e+04 
       1.969411366134e-02       2.221263257344e+04 
       1.982988506838e-02       2.218473271973e+04 
       1.996571833756e-02       2.215600845186e+04 
       2.010161457772e-02       2.212646522086e+04 
       2.023757492636e-02       2.209595425088e+04 
       2.037360055023e-02       2.206468581255e+04 
       2.050969264582e-02       2.203254759689e+04 
       2.064585243999e-02       2.199963603347e+04 
       2.078208119052e-02       2.196593325339e+04 
       2.091838018677e-02       2.193142287039e+04 
       2.105475075025e-02       2.189626749314e+04 
       2.119119423534e-02       2.186031653792e+04 
       2.132771202993e-02       2.182343929455e+04 
       2.146430555611e-02       2.178612681157e+04 
       2.160097627093e-02       2.174799149613e+04 
       2.173772566711e-02       2.170918788104e+04 
       2.187455527383e-02       2.166968200134e+04 
       2.201146665750e-02       2.162965744995e+04 
       2.214846142261e-02       2.158881061847e+04 
       2.228554121254e-02       2.154743914509e+04 
       2.242270771045e-02       2.150552325709e+04 
       2.255996264018e-02       2.146279774381e+04 
       2.269730776717e-02       2.141958084927e+04 
       2.283474489941e-02       2.137593863972e+04 
       2.297227588844e-02       2.133161932509e+04 
       2.310990263033e-02       2.128671681158e+04 
       2.324762706678e-02       2.124131404622e+04 
       2.338545118615e-02       2.119538717474e+04 
       2.352337702459e-02       2.114893762083e+04 
       2.366140666721e-02       2.110197318899e+04 
       2.379954224922e-02       2.105456194850e+04 
       2.393778595719e-02       2.100661609047e+04 
       2.407614003028e-02       2.095825101776e+04 
       2.421460676155e-02       2.090940770640e+04 
       2.435318849930e-02       2.086014075541e+04 
       2.449188764844e-02       2.081043900660e+04 
       2.463070667194e-02       2.076014793196e+04 
       2.476964809225e-02       2.070963384366e+04 
       2.490871449287e-02       2.065878695166e+04 
       2.504790851990e-02       2.060744131536e+04 
       2.518723288360e-02       2.055569499126e+04 
       2.532669036016e-02       2.050365235328e+04 
       2.546628379331e-02       2.045120762048e+04 
       2.560601609619e-02       2.039840454619e+04 
       2.574589025312e-02       2.034528912883e+04 
       2.588590932151e-02       2.029172846397e+04 
       2.602607643385e-02       2.023797420316e+04 
       2.616639479967e-02       2.018384429304e+04 
       2.630686770768e-02       2.012950217289e+04 
       2.644749852793e-02       2.007480676537e+04 
       2.658829071398e-02       2.001976596185e+04 
       2.672924780527e-02       1.996438841552e+04 
       2.687037342950e-02       1.990899801434e+04 
       2.701167130503e-02       1.985314292478e+04 
       2.715314524354e-02       1.979715135132e+04 
       2.729479915255e-02       1.974074566096e+04 
       2.743663703825e-02       1.968424015823e+04 
       2.757866300827e-02       1.962745818510e+04 
       2.772088127463e-02       1.957045568463e+04 
       2.786329615676e-02       1.951320985198e+04 
       2.800591208465e-02       1.945581793597e+04 
       2.814873360208e-02       1.939821926334e+04 
       2.829176537003e-02       1.934031864551e+04 
       2.843501217012e-02       1.928235612668e+04 
       2.857847890828e-02       1.922414824136e+04 
       2.872217061848e-02       1.916578566651e+04 
       2.886609246661e-02       1.910718683453e+04 
       2.901024975456e-02       1.904846021894e+04 
       2.915464792439e-02       1.898959354476e+04 
       2.929929256269e-02       1.893054861268e+04 
       2.944418940507e-02       1.887139020208e+04 
       2.958934434091e-02       1.881209196274e+04 
       2.973476341821e-02       1.875260606611e+04 
       2.988045284865e-02       1.869304673377e+04 
       3.002641901287e-02       1.863338370573e+04 
       3.017266846594e-02       1.857356918283e+04 
       3.031920794310e-02       1.851370378690e+04 
       3.046604436564e-02       1.845370901261e+04 
       3.061318484709e-02       1.839349547449e+04 
       3.076063669967e-02       1.833323913807e+04 
       3.090840744097e-02       1.827287769529e+04 
       3.105650480090e-02       1.821249245874e+04 
       3.120493672902e-02       1.815194056144e+04 
       3.135371140204e-02       1.809138645120e+04 
       3.150283723180e-02       1.803069999270e+04 
       3.165232287347e-02       1.796995327974e+04 
       3.180217723416e-02       1.790913287566e+04 
       3.195240948195e-02       1.784827623911e+04 
       3.210302905520e-02       1.778731341121e+04 
       3.225404567244e-02       1.772634459660e+04 
       3.240546934256e-02       1.766528507988e+04 
       3.255731037555e-02       1.760415442185e+04 
       3.270957939373e-02       1.754302707782e+04 
       3.286228734346e-02       1.748181301448e+04 
       3.301544550744e-02       1.742057390035e+04 
       3.316906551757e-02       1.735924958974e+04 
       3.332315936847e-02       1.729795401430e+04 
       3.347773943155e-02       1.723658903223e+04 
       3.363281846992e-02       1.717516876991e+04 
       3.378840965388e-02       1.711382535761e+04 
       3.394452657727e-02       1.705232687682e+04 
       3.410118327465e-02       1.699084385605e+04 
       3.425839423930e-02       1.692939844331e+04 
       3.441617444216e-02       1.686772012076e+04 
       3.457453935179e-02       1.680614107058e+04 
       3.473350495531e-02       1.674454790577e+04 
       3.489308778049e-02       1.668296486076e+04 
       3.505330491905e-02       1.662130511569e+04 
       3.521417405111e-02       1.655964631419e+04 
       3.537571347111e-02       1.649794804104e+04 
       3.553794211508e-02       1.643630199939e+04 
       3.570087958940e-02       1.637454940203e+04 
       3.586454620132e-02       1.631288524585e+04 
       3.602896299105e-02       1.625114794697e+04 
       3.619415176583e-02       1.618937471792e+04 
       3.636013513594e-02       1.612760800081e+04 
       3.652693655281e-02       1.606582197339e+04 
       3.669458034945e-02       1.600401997755e+04 
       3.686309178333e-02       1.594213369453e+04 
       3.703249708182e-02       1.588030771520e+04 
       3.720282349051e-02       1.581843519773e+04 
       3.737409932449e-02       1.575656232554e+04 
       3.754635402298e-02       1.569464076583e+04 
       3.771961820735e-02       1.563266852889e+04 
       3.789392374300e-02       1.557069811790e+04 
       3.806930380526e-02       1.550867519120e+04 
       3.824579294974e-02       1.544664359206e+04 
       3.842342718737e-02       1.538453204942e+04 
       3.860224406461e-02       1.532245599492e+04 
       3.878228274924e-02       1.526026997598e+04 
       3.896358412215e-02       1.519806320520e+04 
       3.914619087568e-02       1.513582029685e+04 
       3.933014761909e-02       1.507352223992e+04 
       3.951550099171e-02       1.501114095070e+04 
       3.970229978455e-02       1.494872958976e+04 
       3.989059507107e-02       1.488622365717e+04 
       4.008044034791e-02       1.482371876903e+04 
       4.027189168658e-02       1.476110170816e+04 
       4.046500789713e-02       1.469837571939e+04 
       4.065985070485e-02       1.463557100698e+04 
       4.085648494138e-02       1.457266037515e+04 
       4.105497875154e-02       1.450965303408e+04 
       4.125540381752e-02       1.444653420053e+04 
       4.145783560221e-02       1.438329671833e+04 
       4.166235361347e-02       1.431991706720e+04 
       4.186904169181e-02       1.425641463207e+04 
       4.207798832368e-02       1.419277440266e+04 
       4.228928698337e-02       1.412897567904e+04 
       4.250303650651e-02       1.406505633303e+04 
       4.271934149879e-02       1.400085917577e+04 
       4.293831278391e-02       1.393658563480e+04 
       4.316006789521e-02       1.387202894393e+04 
       4.338473161636e-02       1.380724348071e+04 
       4.361243657664e-02       1.374232377825e+04 
       4.384332390794e-02       1.367713934529e+04 
       4.407754397083e-02       1.361153775668e+04 
       4.431525715862e-02       1.354585832883e+04 
       4.455663478957e-02       1.347980338539e+04 
       4.480186009888e-02       1.341335369023e+04 
       4.505112934390e-02       1.334664687638e+04 
       4.530465303822e-02       1.327954266413e+04 
       4.556265733278e-02       1.321204586553e+04 
       4.582538556513e-02       1.314415720376e+04 
       4.609310000156e-02       1.307580485508e+04 
       4.636608380105e-02       1.300702373898e+04 
       4.664464323522e-02       1.293774032503e+04 
       4.692911020432e-02       1.286798015098e+04 
       4.721984509712e-02       1.279754833973e+04 
       4.751724005114e-02       1.272652941228e+04 
       4.782172268082e-02       1.265490349549e+04 
       4.813376035447e-02       1.258258353559e+04 
       4.845386511713e-02       1.250938436416e+04 
       4.878259937678e-02       1.243566053915e+04 
       4.912058249572e-02       1.236081733086e+04 
       4.946849846034e-02       1.228485868317e+04 
       4.982710484034e-02       1.220830500933e+04 
       5.019724329686e-02       1.213015617100e+04 
       5.057985195918e-02       1.205117098514e+04 
       5.097598006567e-02       1.197059666074e+04 
       5.138680536119e-02       1.188874671060e+04 
       5.181365486509e-02       1.180535076671e+04 
       5.225802977981e-02       1.172036514131e+04 
       5.272163550834e-02       1.163343909451e+04 
       5.320641800135e-02       1.154446794540e+04 
       5.371460797667e-02       1.145321978094e+04 
       5.424877496034e-02       1.135949138118e+04 
       5.481189360782e-02       1.126292243230e+04 
       5.540742538993e-02       1.116324043013e+04 
       5.603941947195e-02       1.105992890982e+04 
       5.671263744498e-02       1.095292825350e+04 
       5.743270738119e-02       1.084114569575e+04 
       5.820631321809e-02       1.072411448737e+04 
       5.904142515786e-02       1.060100025150e+04 
       5.994757441509e-02       1.047113551396e+04 
       6.093616895780e-02       1.033275544789e+04 
       6.202083161439e-02       1.018480294535e+04 
       6.321771082156e-02       1.002529440995e+04 
       6.454565662573e-02       9.851887021431e+03 
       6.602605897185e-02       9.661916618192e+03 
