# Matter power spectrum P(k) at redshift z=0
# for k=1.0471e-05 to 0.629437 h/Mpc,
# number of wavenumbers equal to 560
#    1:k (h/Mpc)              2:P (Mpc/h)^3        
       1.047101047385e-05       5.082826699796e+01 
       2.339490958396e-05       1.103670164080e+02 
       3.636452404804e-05       1.688835683147e+02 
       4.941498324954e-05       2.270013461914e+02 
       6.258200113269e-05       2.850766940207e+02 
       7.590219677246e-05       3.433777308723e+02 
       8.941342525609e-05       4.021344331137e+02 
       1.031551233040e-04       4.615592097486e+02 
       1.171686740916e-04       5.218574404487e+02 
       1.314977957683e-04       5.832338939357e+02 
       1.461889581731e-04       6.458971817214e+02 
       1.612918321836e-04       7.100632587205e+02 
       1.768597759486e-04       7.759584114595e+02 
       1.929503618619e-04       8.438219993878e+02 
       2.096259474525e-04       9.139090871878e+02 
       2.269542922356e-04       9.864930574238e+02 
       2.450092208306e-04       1.061868226060e+03 
       2.638713300699e-04       1.140352485344e+03 
       2.836287341135e-04       1.222289950671e+03 
       3.043778364038e-04       1.308053563916e+03 
       3.262241102559e-04       1.398047560175e+03 
       3.492828605542e-04       1.492709696269e+03 
       3.736799270378e-04       1.592513040388e+03 
       3.995522747542e-04       1.697967077446e+03 
       4.270483994875e-04       1.809617887146e+03 
       4.563284559275e-04       1.928046912559e+03 
       4.875639955066e-04       2.053867973708e+03 
       5.209371819437e-04       2.187721931165e+03 
       5.566393399770e-04       2.330268543445e+03 
       5.948686927401e-04       2.482174958201e+03 
       6.358271634767e-04       2.644100517032e+03 
       6.797161659514e-04       2.816677764592e+03 
       7.267313913603e-04       3.000489780346e+03 
       7.770567189419e-04       3.196044790840e+03 
       8.308575248841e-04       3.403749247941e+03 
       8.882738194901e-04       3.623881284592e+03 
       9.494137739994e-04       3.856567135209e+03 
       1.014348267736e-03       4.101762766615e+03 
       1.083107059865e-03       4.359243396037e+03 
       1.155677052987e-03       4.628602278938e+03 
       1.232002882010e-03       4.909259699619e+03 
       1.311989774748e-03       5.200481293045e+03 
       1.395508352176e-03       5.501382828820e+03 
       1.482400825855e-03       5.811002578056e+03 
       1.572487946081e-03       6.128333415976e+03 
       1.665576063741e-03       6.452316527725e+03 
       1.761463769776e-03       6.781889072867e+03 
       1.859947730115e-03       7.116008602314e+03 
       1.960827500705e-03       7.453672498535e+03 
       2.063909255626e-03       7.793932541890e+03 
       2.169008473804e-03       8.135904142601e+03 
       2.275951701931e-03       8.478772558566e+03 
       2.384577547183e-03       8.821794794127e+03 
       2.494737061657e-03       9.164299361251e+03 
       2.606293670705e-03       9.505683532287e+03 
       2.719122777643e-03       9.845411005659e+03 
       2.833111153721e-03       1.018300575885e+04 
       2.948156198773e-03       1.051804819572e+04 
       3.064165136844e-03       1.085017201226e+04 
       3.181054193233e-03       1.117905597022e+04 
       3.298747785103e-03       1.150442256534e+04 
       3.417177746731e-03       1.182603301424e+04 
       3.536282602186e-03       1.214368040389e+04 
       3.656006892261e-03       1.245718871723e+04 
       3.776300558231e-03       1.276641249311e+04 
       3.897118382208e-03       1.307122464916e+04 
       4.018419481989e-03       1.337152502762e+04 
       4.140166857180e-03       1.366722777623e+04 
       4.262326982808e-03       1.395827002081e+04 
       4.384869446341e-03       1.424459443855e+04 
       4.507766624067e-03       1.452616714023e+04 
       4.630993392892e-03       1.480295906461e+04 
       4.754526873859e-03       1.507493841896e+04 
       4.878346203966e-03       1.534211017259e+04 
       5.002432333153e-03       1.560447595625e+04 
       5.126767843638e-03       1.586203628609e+04 
       5.251336789054e-03       1.611487239639e+04 
       5.376124551136e-03       1.636292440277e+04 
       5.501117711927e-03       1.660623962690e+04 
       5.626303939728e-03       1.684483142263e+04 
       5.751671887212e-03       1.707872809930e+04 
       5.877211100303e-03       1.730797274796e+04 
       6.002911936597e-03       1.753259407863e+04 
       6.128765492236e-03       1.775264204072e+04 
       6.254763536282e-03       1.796814639661e+04 
       6.380898451750e-03       1.817915797744e+04 
       6.507163182562e-03       1.838572829941e+04 
       6.633551185762e-03       1.858789296293e+04 
       6.760056388423e-03       1.878570261798e+04 
       6.886673148736e-03       1.897919880971e+04 
       7.013396220820e-03       1.916846614015e+04 
       7.140220722885e-03       1.935348383508e+04 
       7.267142108363e-03       1.953437584971e+04 
       7.394156139717e-03       1.971115620578e+04 
       7.521258864649e-03       1.988388178743e+04 
       7.648446594461e-03       2.005256982039e+04 
       7.775715884344e-03       2.021736437372e+04 
       7.903063515422e-03       2.037820124368e+04 
       8.030486478350e-03       2.053520181920e+04 
       8.157981958345e-03       2.068838010662e+04 
       8.285547321482e-03       2.083780115676e+04 
       8.413180102161e-03       2.098351394708e+04 
       8.540877991609e-03       2.112555237493e+04 
       8.668638827342e-03       2.126398820415e+04 
       8.796460583488e-03       2.139884566662e+04 
       8.924341361886e-03       2.153025426139e+04 
       9.052279383908e-03       2.165814196474e+04 
       9.180272982922e-03       2.178253710689e+04 
       9.308320597354e-03       2.190370947473e+04 
       9.436420764282e-03       2.202139185637e+04 
       9.564572113528e-03       2.213588169084e+04 
       9.692773362204e-03       2.224714022861e+04 
       9.821023309664e-03       2.235520196164e+04 
       9.949320832839e-03       2.246012824282e+04 
       1.007766488192e-02       2.256195503027e+04 
       1.020605447635e-02       2.266072003836e+04 
       1.033448870115e-02       2.275648462805e+04 
       1.046296670342e-02       2.284926960224e+04 
       1.059148768923e-02       2.293913339785e+04 
       1.072005092058e-02       2.302611734066e+04 
       1.084865571271e-02       2.311025979604e+04 
       1.097730143154e-02       2.319166059700e+04 
       1.110598749128e-02       2.327016936139e+04 
       1.123471335223e-02       2.334601352320e+04 
       1.136347851874e-02       2.341918495056e+04 
       1.149228253729e-02       2.348970839388e+04 
       1.162112499474e-02       2.355763540716e+04 
       1.175000551665e-02       2.362297996870e+04 
       1.187892376578e-02       2.368581460295e+04 
       1.200787944063e-02       2.374615421832e+04 
       1.213687227416e-02       2.380413187207e+04 
       1.226590203249e-02       2.385949933317e+04 
       1.239496851381e-02       2.391258854529e+04 
       1.252407154730e-02       2.396333032453e+04 
       1.265321099214e-02       2.401175809753e+04 
       1.278238673657e-02       2.405791788851e+04 
       1.291159869707e-02       2.410191410364e+04 
       1.304084681758e-02       2.414351780689e+04 
       1.317013106871e-02       2.418302155463e+04 
       1.329945144715e-02       2.422041718043e+04 
       1.342880797499e-02       2.425565996000e+04 
       1.355820069916e-02       2.428885455806e+04 
       1.368762969090e-02       2.432000676145e+04 
       1.381709504532e-02       2.434913727000e+04 
       1.394659688089e-02       2.437628866065e+04 
       1.407613533910e-02       2.440157443116e+04 
       1.420571058406e-02       2.442474439763e+04 
       1.433532280219e-02       2.444621556259e+04 
       1.446497220190e-02       2.446561414281e+04 
       1.459465901338e-02       2.448329971622e+04 
       1.472438348830e-02       2.449917146373e+04 
       1.485414589966e-02       2.451330672156e+04 
       1.498394654161e-02       2.452558947032e+04 
       1.511378572926e-02       2.453621624417e+04 
       1.524366379861e-02       2.454513430295e+04 
       1.537358110644e-02       2.455239184985e+04 
       1.550353803020e-02       2.455799347272e+04 
       1.563353496802e-02       2.456198418833e+04 
       1.576357233863e-02       2.456438739111e+04 
       1.589365058140e-02       2.456524079673e+04 
       1.602377015631e-02       2.456454084911e+04 
       1.615393154401e-02       2.456234945845e+04 
       1.628413524589e-02       2.455862833880e+04 
       1.641438178412e-02       2.455345350810e+04 
       1.654467170177e-02       2.454686835950e+04 
       1.667500556291e-02       2.453887852065e+04 
       1.680538395274e-02       2.452941298032e+04 
       1.693580747775e-02       2.451872779744e+04 
       1.706627676587e-02       2.450650739545e+04 
       1.719679246666e-02       2.449312908969e+04 
       1.732735525153e-02       2.447828460675e+04 
       1.745796581391e-02       2.446224945592e+04 
       1.758862486953e-02       2.444494470623e+04 
       1.771933315667e-02       2.442652519793e+04 
       1.785009143636e-02       2.440669013795e+04 
       1.798090049278e-02       2.438573223080e+04 
       1.811176113345e-02       2.436372549386e+04 
       1.824267418962e-02       2.434036021182e+04 
       1.837364051657e-02       2.431594929788e+04 
       1.850466099396e-02       2.429045688259e+04 
       1.863573652622e-02       2.426391286913e+04 
       1.876686804293e-02       2.423623954152e+04 
       1.889805649920e-02       2.420751112854e+04 
       1.902930287610e-02       2.417774957120e+04 
       1.916060818112e-02       2.414689028330e+04 
       1.929197344859e-02       2.411510916485e+04 
       1.942339974016e-02       2.408246102979e+04 
       1.955488814530e-02       2.404873943037e+04 
       1.968643978182e-02       2.401395295619e+04 
       1.981805579636e-02       2.397849257313e+04 
       1.994973736497e-02       2.394189894284e+04 
       2.008148569365e-02       2.390460523047e+04 
       2.021330201895e-02       2.386635580408e+04 
       2.034518760860e-02       2.382722815671e+04 
       2.047714376207e-02       2.378716853737e+04 
       2.060917181129e-02       2.374644809642e+04 
       2.074127312124e-02       2.370482769888e+04 
       2.087344909073e-02       2.366247887477e+04 
       2.100570115305e-02       2.361930013705e+04 
       2.113803077672e-02       2.357540688411e+04 
       2.127043946625e-02       2.353075091892e+04 
       2.140292876293e-02       2.348539461564e+04 
       2.153550024563e-02       2.343934451614e+04 
       2.166815553167e-02       2.339248158300e+04 
       2.180089627760e-02       2.334505192126e+04 
       2.193372418018e-02       2.329694098296e+04 
       2.206664097725e-02       2.324806881925e+04 
       2.219964844864e-02       2.319858260710e+04 
       2.233274841723e-02       2.314850387505e+04 
       2.246594274989e-02       2.309780610103e+04 
       2.259923335853e-02       2.304661243858e+04 
       2.273262220117e-02       2.299466383416e+04 
       2.286611128304e-02       2.294218053821e+04 
       2.299970265773e-02       2.288916712424e+04 
       2.313339842835e-02       2.283563097826e+04 
       2.326720074872e-02       2.278153337804e+04 
       2.340111182467e-02       2.272692060634e+04 
       2.353513391525e-02       2.267179764172e+04 
       2.366926933412e-02       2.261611020027e+04 
       2.380352045090e-02       2.256001341928e+04 
       2.393788969257e-02       2.250347146266e+04 
       2.407237954493e-02       2.244646970484e+04 
       2.420699255411e-02       2.238892742324e+04 
       2.434173132811e-02       2.233098190277e+04 
       2.447659853843e-02       2.227265502676e+04 
       2.461159692169e-02       2.221381793728e+04 
       2.474672928135e-02       2.215461588117e+04 
       2.488199848947e-02       2.209504042776e+04 
       2.501740748853e-02       2.203503388872e+04 
       2.515295929334e-02       2.197472312808e+04 
       2.528865699291e-02       2.191396869864e+04 
       2.542450375254e-02       2.185292106208e+04 
       2.556050281585e-02       2.179153201539e+04 
       2.569665750691e-02       2.172980098899e+04 
       2.583297123250e-02       2.166763946372e+04 
       2.596944748438e-02       2.160522400640e+04 
       2.610608984165e-02       2.154255384843e+04 
       2.624290197320e-02       2.147954530792e+04 
       2.637988764028e-02       2.141626115218e+04 
       2.651705069910e-02       2.135265657383e+04 
       2.665439510354e-02       2.128878670524e+04 
       2.679192490796e-02       2.122480732616e+04 
       2.692964427017e-02       2.116047006150e+04 
       2.706755745434e-02       2.109578606808e+04 
       2.720566883425e-02       2.103101728505e+04 
       2.734398289640e-02       2.096585974100e+04 
       2.748250424349e-02       2.090066012467e+04 
       2.762123759780e-02       2.083505698351e+04 
       2.776018780486e-02       2.076936722127e+04 
       2.789935983714e-02       2.070349397733e+04 
       2.803875879800e-02       2.063733352879e+04 
       2.817838992565e-02       2.057105575188e+04 
       2.831825859738e-02       2.050459019420e+04 
       2.845837033389e-02       2.043793235909e+04 
       2.859873080378e-02       2.037116145189e+04 
       2.873934582826e-02       2.030419877598e+04 
       2.888022138601e-02       2.023711713704e+04 
       2.902136361825e-02       2.016983749942e+04 
       2.916277883399e-02       2.010241180898e+04 
       2.930447351551e-02       2.003494315759e+04 
       2.944645432406e-02       1.996728076888e+04 
       2.958872810579e-02       1.989946588404e+04 
       2.973130189791e-02       1.983158741504e+04 
       2.987418293514e-02       1.976357854254e+04 
       3.001737865639e-02       1.969547606567e+04 
       3.016089671172e-02       1.962731214546e+04 
       3.030474496967e-02       1.955899676582e+04 
       3.044893152481e-02       1.949062808497e+04 
       3.059346470566e-02       1.942215181065e+04 
       3.073835308294e-02       1.935357816274e+04 
       3.088360547825e-02       1.928496396310e+04 
       3.102923097300e-02       1.921622653944e+04 
       3.117523891788e-02       1.914750220742e+04 
       3.132163894267e-02       1.907870056217e+04 
       3.146844096653e-02       1.900982905310e+04 
       3.161565520879e-02       1.894086908868e+04 
       3.176329220014e-02       1.887193189391e+04 
       3.191136279449e-02       1.880292593357e+04 
       3.205987818127e-02       1.873381828260e+04 
       3.220884989838e-02       1.866469286153e+04 
       3.235828984577e-02       1.859556024132e+04 
       3.250821029960e-02       1.852638042163e+04 
       3.265862392724e-02       1.845713857365e+04 
       3.280954380284e-02       1.838789951977e+04 
       3.296098342387e-02       1.831859925917e+04 
       3.311295672832e-02       1.824933387434e+04 
       3.326547811291e-02       1.818004288940e+04 
       3.341856245219e-02       1.811067725208e+04 
       3.357222511861e-02       1.804126513236e+04 
       3.372648200373e-02       1.797194286969e+04 
       3.388134954046e-02       1.790253464037e+04 
       3.403684472660e-02       1.783315696256e+04 
       3.419298514958e-02       1.776376161050e+04 
       3.434978901263e-02       1.769433268846e+04 
       3.450727516234e-02       1.762490310799e+04 
       3.466546311784e-02       1.755548528830e+04 
       3.482437310158e-02       1.748599639160e+04 
       3.498402607195e-02       1.741654150326e+04 
       3.514444375770e-02       1.734708527737e+04 
       3.530564869451e-02       1.727762998696e+04 
       3.546766426367e-02       1.720813128970e+04 
       3.563051473305e-02       1.713867647657e+04 
       3.579422530068e-02       1.706919123036e+04 
       3.595882214092e-02       1.699972793157e+04 
       3.612433245358e-02       1.693018379904e+04 
       3.629078451613e-02       1.686065279610e+04 
       3.645820773922e-02       1.679111121674e+04 
       3.662663272586e-02       1.672159497884e+04 
       3.679609133444e-02       1.665201324570e+04 
       3.696661674598e-02       1.658241068195e+04 
       3.713824353588e-02       1.651285061411e+04 
       3.731100775057e-02       1.644326427364e+04 
       3.748494698950e-02       1.637363131127e+04 
       3.766010049288e-02       1.630399297801e+04 
       3.783650923556e-02       1.623423496664e+04 
       3.801421602785e-02       1.616455179241e+04 
       3.819326562354e-02       1.609480635836e+04 
       3.837370483604e-02       1.602501766147e+04 
       3.855558266317e-02       1.595519215798e+04 
       3.873895042160e-02       1.588528645123e+04 
       3.892386189150e-02       1.581534899520e+04 
       3.911037347277e-02       1.574531149681e+04 
       3.929854435358e-02       1.567520272985e+04 
       3.948843669265e-02       1.560504363577e+04 
       3.968011581645e-02       1.553482866523e+04 
       3.987365043298e-02       1.546452118103e+04 
       4.006911286361e-02       1.539409093894e+04 
       4.026657929501e-02       1.532355075472e+04 
       4.046613005310e-02       1.525292442965e+04 
       4.066784990153e-02       1.518219404330e+04 
       4.087182836716e-02       1.511132957794e+04 
       4.107816009567e-02       1.504033657608e+04 
       4.128694524048e-02       1.496917285686e+04 
       4.149828988895e-02       1.489787413598e+04 
       4.171230653001e-02       1.482634999489e+04 
       4.192911456820e-02       1.475468040770e+04 
       4.214884088960e-02       1.468280593208e+04 
       4.237162048607e-02       1.461072146132e+04 
       4.259759714498e-02       1.453839659074e+04 
       4.282692421276e-02       1.446581962269e+04 
       4.305976544183e-02       1.439298152000e+04 
       4.329629593187e-02       1.431989552719e+04 
       4.353670317821e-02       1.424654529896e+04 
       4.378118824190e-02       1.417272173825e+04 
       4.402996705873e-02       1.409864429575e+04 
       4.428327190689e-02       1.402416416240e+04 
       4.454135305671e-02       1.394934834296e+04 
       4.480448062954e-02       1.387401073149e+04 
       4.507294669787e-02       1.379833218195e+04 
       4.534706766447e-02       1.372205195547e+04 
       4.562718696516e-02       1.364530348044e+04 
       4.591367814832e-02       1.356796458225e+04 
       4.620694839442e-02       1.349000251712e+04 
       4.650744255124e-02       1.341140215932e+04 
       4.681564777569e-02       1.333208640793e+04 
       4.713209889189e-02       1.325206968855e+04 
       4.745738459821e-02       1.317114583618e+04 
       4.779215468472e-02       1.308943453600e+04 
       4.813712845813e-02       1.300663172216e+04 
       4.849310461592e-02       1.292287496756e+04 
       4.886097286729e-02       1.283802870909e+04 
       4.924172766931e-02       1.275195740633e+04 
       4.963648453575e-02       1.266452738301e+04 
       5.004649948933e-02       1.257572517887e+04 
       5.047319237237e-02       1.248520012661e+04 
       5.091817491427e-02       1.239306758500e+04 
       5.138328468840e-02       1.229897094154e+04 
       5.187062638891e-02       1.220276179962e+04 
       5.238262223529e-02       1.210414337214e+04 
       5.292207378616e-02       1.200297843798e+04 
       5.349223802843e-02       1.189885411740e+04 
       5.409692130755e-02       1.179139893616e+04 
       5.474059545817e-02       1.168017749759e+04 
       5.542854129586e-02       1.156467783674e+04 
       5.616702522479e-02       1.144427635180e+04 
       5.696351461838e-02       1.131816148992e+04 
       5.782693583220e-02       1.118536964968e+04 
       5.876797323005e-02       1.104470626027e+04 
       5.979939474589e-02       1.089463557680e+04 
       6.093636285521e-02       1.073325217957e+04 
       6.219663956057e-02       1.055820432689e+04 
