# Matter power spectrum P(k) at redshift z=0
# for k=1.04564e-05 to 0.628781 h/Mpc,
# number of wavenumbers equal to 561
#    1:k (h/Mpc)              2:P (Mpc/h)^3        
       1.045636895265e-05       5.098359274220e+01 
       2.331311522867e-05       1.104799479204e+02 
       3.621497469296e-05       1.689555400810e+02 
       4.919653046001e-05       2.270302698273e+02 
       6.229293613021e-05       2.850582530364e+02 
       7.554022807231e-05       3.433056135982e+02 
       8.897564766345e-05       4.020003719306e+02 
       1.026379777576e-04       4.613529006478e+02 
       1.165678976857e-04       5.215664205937e+02 
       1.308083611250e-04       5.828433625223e+02 
       1.454050011804e-04       6.453897908689e+02 
       1.604065669647e-04       7.094188461795e+02 
       1.758653957900e-04       7.751536911065e+02 
       1.918379247210e-04       8.428302099817e+02 
       2.083852445996e-04       9.126995798547e+02 
       2.255736985949e-04       9.850308304942e+02 
       2.434755257070e-04       1.060113411670e+03 
       2.621695472308e-04       1.138259771854e+03 
       2.817418907160e-04       1.219807957959e+03 
       3.022867411043e-04       1.305124163597e+03 
       3.239071021206e-04       1.394605174848e+03 
       3.467155422468e-04       1.488680578833e+03 
       3.708348883364e-04       1.587814573527e+03 
       3.963988158829e-04       1.692507155433e+03 
       4.235522681433e-04       1.803294405426e+03 
       4.524516172432e-04       1.920747503957e+03 
       4.832644603421e-04       2.045470051586e+03 
       5.161689253805e-04       2.178093210080e+03 
       5.513523478301e-04       2.319268161586e+03 
       5.890091779236e-04       2.469655388579e+03 
       6.293379942608e-04       2.629910412714e+03 
       6.725375422893e-04       2.800665818794e+03 
       7.188017913919e-04       2.982509765003e+03 
       7.683141142331e-04       3.175961579455e+03 
       8.212408305403e-04       3.381445744155e+03 
       8.777245073933e-04       3.599265901281e+03 
       9.378775405593e-04       3.829581278153e+03 
       1.001776620421e-03       4.072387851945e+03 
       1.069458678053e-03       4.327506746179e+03 
       1.140918793843e-03       4.594581393006e+03 
       1.216110340766e-03       4.873084551622e+03 
       1.294947363896e-03       5.162334582375e+03 
       1.377308923727e-03       5.461504103442e+03 
       1.463044912184e-03       5.769666859263e+03 
       1.551982728339e-03       6.085864885767e+03 
       1.643934188577e-03       6.409076838154e+03 
       1.738702127243e-03       6.738271627265e+03 
       1.836086284260e-03       7.072432869627e+03 
       1.935888236694e-03       7.410578429704e+03 
       2.037915279712e-03       7.751775462754e+03 
       2.141983279149e-03       8.095150210133e+03 
       2.247918596132e-03       8.439894443823e+03 
       2.355559226415e-03       8.785267795847e+03 
       2.464755310695e-03       9.130598052050e+03 
       2.575369166375e-03       9.475279140100e+03 
       2.687274974074e-03       9.818766881628e+03 
       2.800358230081e-03       1.016057725486e+04 
       2.914515053089e-03       1.050027964819e+04 
       3.029651412542e-03       1.083749441506e+04 
       3.145682327839e-03       1.117188640834e+04 
       3.262531073012e-03       1.150316248620e+04 
       3.380128409983e-03       1.183106601966e+04 
       3.498411864838e-03       1.215537397716e+04 
       3.617325055227e-03       1.247589151452e+04 
       3.736817072455e-03       1.279245478213e+04 
       3.856841918765e-03       1.310491759504e+04 
       3.977357998251e-03       1.341316059769e+04 
       4.098327658605e-03       1.371707851610e+04 
       4.219716780141e-03       1.401658820062e+04 
       4.341494408255e-03       1.431161541741e+04 
       4.463632425364e-03       1.460210559353e+04 
       4.586105258478e-03       1.488801127848e+04 
       4.708889618759e-03       1.516929528310e+04 
       4.831964269661e-03       1.544588877955e+04 
       4.955309820525e-03       1.571786968440e+04 
       5.078908542813e-03       1.598514934966e+04 
       5.202744206422e-03       1.624774753728e+04 
       5.326801933802e-03       1.650574640554e+04 
       5.451068069837e-03       1.675908368788e+04 
       5.575530065700e-03       1.700776113563e+04 
       5.700176375068e-03       1.725181278950e+04 
       5.824996361299e-03       1.749116819923e+04 
       5.949980214306e-03       1.772558517580e+04 
       6.075118876054e-03       1.795583291806e+04 
       6.200403973680e-03       1.818155220716e+04 
       6.325827759407e-03       1.840276907994e+04 
       6.451383056486e-03       1.861952728879e+04 
       6.577063210496e-03       1.883179237452e+04 
       6.702862045433e-03       1.903971310076e+04 
       6.828773824052e-03       1.924340735245e+04 
       6.954793212016e-03       1.944263174649e+04 
       7.080915245446e-03       1.963782234917e+04 
       7.207135301507e-03       1.982850896755e+04 
       7.333449071729e-03       2.001523578928e+04 
       7.459852537758e-03       2.019779265660e+04 
       7.586341949313e-03       2.037620840446e+04 
       7.712913804112e-03       2.055048936699e+04 
       7.839564829570e-03       2.072071662059e+04 
       7.966291966108e-03       2.088734166077e+04 
       8.093092351890e-03       2.105001502940e+04 
       8.219963308881e-03       2.120900423862e+04 
       8.346902330074e-03       2.136398887040e+04 
       8.473907067788e-03       2.151514041377e+04 
       8.600975322935e-03       2.166294508517e+04 
       8.728105035167e-03       2.180648209155e+04 
       8.855294273818e-03       2.194693472720e+04 
       8.982541229575e-03       2.208367805677e+04 
       9.109844206809e-03       2.221641367536e+04 
       9.237201616507e-03       2.234570446459e+04 
       9.364611969761e-03       2.247241054190e+04 
       9.492073871748e-03       2.259520668641e+04 
       9.619586016182e-03       2.271451673701e+04 
       9.747147180177e-03       2.283076640624e+04 
       9.874756219500e-03       2.294374109761e+04 
       1.000241206418e-02       2.305383744275e+04 
       1.013011371442e-02       2.315964992427e+04 
       1.025786023687e-02       2.326332803570e+04 
       1.038565076108e-02       2.336340501245e+04 
       1.051348447627e-02       2.346090972207e+04 
       1.064136062835e-02       2.355522812586e+04 
       1.076927851709e-02       2.364696992617e+04 
       1.089723749352e-02       2.373525260969e+04 
       1.102523695756e-02       2.382072511946e+04 
       1.115327635573e-02       2.390333793084e+04 
       1.128135517909e-02       2.398322739294e+04 
       1.140947296127e-02       2.406058977502e+04 
       1.153762927673e-02       2.413508841779e+04 
       1.166582373900e-02       2.420696017644e+04 
       1.179405599918e-02       2.427611054001e+04 
       1.192232574446e-02       2.434270024573e+04 
       1.205063269678e-02       2.440679782561e+04 
       1.217897661157e-02       2.446864384375e+04 
       1.230735727658e-02       2.452774151839e+04 
       1.243577451079e-02       2.458387371310e+04 
       1.256422816342e-02       2.463793285708e+04 
       1.269271811298e-02       2.468981673583e+04 
       1.282124426640e-02       2.473932351337e+04 
       1.294980655825e-02       2.478637957422e+04 
       1.307840494995e-02       2.483167967112e+04 
       1.320703942913e-02       2.487389606981e+04 
       1.333571000897e-02       2.491420848829e+04 
       1.346441672761e-02       2.495282032855e+04 
       1.359315964763e-02       2.498849818545e+04 
       1.372193885555e-02       2.502297966237e+04 
       1.385075446136e-02       2.505486836187e+04 
       1.397960659814e-02       2.508494240001e+04 
       1.410849542166e-02       2.511292625032e+04 
       1.423742111006e-02       2.513791874570e+04 
       1.436638386352e-02       2.516181498486e+04 
       1.449538390403e-02       2.518376420672e+04 
       1.462442147509e-02       2.520413470738e+04 
       1.475349684158e-02       2.522200233069e+04 
       1.488261028950e-02       2.523870119378e+04 
       1.501176212586e-02       2.525344629128e+04 
       1.514095267852e-02       2.526573122267e+04 
       1.527018229612e-02       2.527702050315e+04 
       1.539945134798e-02       2.528635485805e+04 
       1.552876022405e-02       2.529427026328e+04 
       1.565810933487e-02       2.529980462422e+04 
       1.578749911154e-02       2.530393183819e+04 
       1.591693000578e-02       2.530677908654e+04 
       1.604640248991e-02       2.530752883348e+04 
       1.617591705691e-02       2.530701163182e+04 
       1.630547422050e-02       2.530439225179e+04 
       1.643507451522e-02       2.530078306836e+04 
       1.656471849656e-02       2.529561861230e+04 
       1.669440674103e-02       2.528904495347e+04 
       1.682413984634e-02       2.528138890604e+04 
       1.695391843157e-02       2.527215649967e+04 
       1.708374313733e-02       2.526096550695e+04 
       1.721361462594e-02       2.524878818123e+04 
       1.734353358166e-02       2.523477582308e+04 
       1.747350071094e-02       2.521981851549e+04 
       1.760351674261e-02       2.520400225627e+04 
       1.773358242819e-02       2.518653123378e+04 
       1.786369854214e-02       2.516720924581e+04 
       1.799386588219e-02       2.514715501870e+04 
       1.812408526959e-02       2.512618131113e+04 
       1.825435754951e-02       2.510391293722e+04 
       1.838468359133e-02       2.508003841398e+04 
       1.851506428904e-02       2.505534709671e+04 
       1.864550056158e-02       2.502942576443e+04 
       1.877599335327e-02       2.500243388583e+04 
       1.890654363420e-02       2.497436182493e+04 
       1.903715240069e-02       2.494479975395e+04 
       1.916782067569e-02       2.491449210010e+04 
       1.929854950928e-02       2.488320661267e+04 
       1.942933997916e-02       2.485073549176e+04 
       1.956019319113e-02       2.481724513327e+04 
       1.969111027959e-02       2.478300259739e+04 
       1.982209240815e-02       2.474757395472e+04 
       1.995314077010e-02       2.471152098520e+04 
       2.008425658907e-02       2.467403546511e+04 
       2.021544111957e-02       2.463589398242e+04 
       2.034669564761e-02       2.459686557805e+04 
       2.047802149139e-02       2.455683732110e+04 
       2.060942000192e-02       2.451599767518e+04 
       2.074089256368e-02       2.447450250254e+04 
       2.087244059538e-02       2.443200168797e+04 
       2.100406555065e-02       2.438879316562e+04 
       2.113576891881e-02       2.434447513637e+04 
       2.126755222563e-02       2.429966665428e+04 
       2.139941703412e-02       2.425405413225e+04 
       2.153136494540e-02       2.420772174237e+04 
       2.166339759949e-02       2.416051097926e+04 
       2.179551667624e-02       2.411292314268e+04 
       2.192772389621e-02       2.406420699675e+04 
       2.206002102160e-02       2.401498283174e+04 
       2.219240985723e-02       2.396530754818e+04 
       2.232489225151e-02       2.391458406227e+04 
       2.245747009750e-02       2.386331808077e+04 
       2.259014533393e-02       2.381146893377e+04 
       2.272291994629e-02       2.375862749817e+04 
       2.285579596801e-02       2.370597089025e+04 
       2.298877548152e-02       2.365215880342e+04 
       2.312186061955e-02       2.359808956951e+04 
       2.325505356628e-02       2.354323905305e+04 
       2.338835655866e-02       2.348778012249e+04 
       2.352177188770e-02       2.343186575201e+04 
       2.365530189984e-02       2.337569825190e+04 
       2.378894899832e-02       2.331850335689e+04 
       2.392271564463e-02       2.326125112849e+04 
       2.405660436003e-02       2.320337111665e+04 
       2.419061772703e-02       2.314491594929e+04 
       2.432475839100e-02       2.308601085120e+04 
       2.445902906182e-02       2.302660771086e+04 
       2.459343251555e-02       2.296700013089e+04 
       2.472797159615e-02       2.290664140950e+04 
       2.486264921733e-02       2.284594985994e+04 
       2.499746836438e-02       2.278517060143e+04 
       2.513243209608e-02       2.272366847924e+04 
       2.526754354671e-02       2.266173228120e+04 
       2.540280592808e-02       2.259966598413e+04 
       2.553822253168e-02       2.253711973203e+04 
       2.567379673083e-02       2.247420586797e+04 
       2.580953198296e-02       2.241097198864e+04 
       2.594543183197e-02       2.234730324325e+04 
       2.608149991066e-02       2.228338810800e+04 
       2.621773994318e-02       2.221888886385e+04 
       2.635415574769e-02       2.215462835237e+04 
       2.649075123902e-02       2.208967517142e+04 
       2.662753043144e-02       2.202451810597e+04 
       2.676449744156e-02       2.195912310737e+04 
       2.690165649127e-02       2.189344678397e+04 
       2.703901191090e-02       2.182746730686e+04 
       2.717656814234e-02       2.176140650792e+04 
       2.731432974242e-02       2.169465061577e+04 
       2.745230138629e-02       2.162800523088e+04 
       2.759048787106e-02       2.156124092469e+04 
       2.772889411942e-02       2.149391582208e+04 
       2.786752518351e-02       2.142670308276e+04 
       2.800638624891e-02       2.135917683793e+04 
       2.814548263877e-02       2.129129912881e+04 
       2.828481981808e-02       2.122356658431e+04 
       2.842440339813e-02       2.115536888631e+04 
       2.856423914116e-02       2.108703488988e+04 
       2.870433296514e-02       2.101859956985e+04 
       2.884469094880e-02       2.094992551714e+04 
       2.898531933679e-02       2.088115134455e+04 
       2.912622454512e-02       2.081223225269e+04 
       2.926741316679e-02       2.074313120103e+04 
       2.940889197759e-02       2.067390068060e+04 
       2.955066794226e-02       2.060448294547e+04 
       2.969274822080e-02       2.053503998295e+04 
       2.983514017510e-02       2.046538218874e+04 
       2.997785137578e-02       2.039559964113e+04 
       3.012088960947e-02       2.032614023970e+04 
       3.026426288619e-02       2.025595535803e+04 
       3.040797944725e-02       2.018598885956e+04 
       3.055204777335e-02       2.011580844762e+04 
       3.069647659312e-02       2.004545861472e+04 
       3.084127489199e-02       1.997529131295e+04 
       3.098645192148e-02       1.990481348030e+04 
       3.113201720894e-02       1.983460851688e+04 
       3.127798056765e-02       1.976380631386e+04 
       3.142435210744e-02       1.969340861804e+04 
       3.157114224584e-02       1.962263015440e+04 
       3.171836171966e-02       1.955206720048e+04 
       3.186602159717e-02       1.948098343038e+04 
       3.201413329089e-02       1.941023275772e+04 
       3.216270857092e-02       1.933985430404e+04 
       3.231175957901e-02       1.926877914304e+04 
       3.246129884319e-02       1.919784788876e+04 
       3.261133929332e-02       1.912689074914e+04 
       3.276189427718e-02       1.905585695174e+04 
       3.291297757760e-02       1.898477197925e+04 
       3.306460343032e-02       1.891342568117e+04 
       3.321678654281e-02       1.884244640772e+04 
       3.336954211409e-02       1.877143551213e+04 
       3.352288585559e-02       1.870029846858e+04 
       3.367683401310e-02       1.862888729564e+04 
       3.383140338991e-02       1.855807068267e+04 
       3.398661137124e-02       1.848683944263e+04 
       3.414247594993e-02       1.841523475370e+04 
       3.429901575368e-02       1.834435303241e+04 
       3.445625007372e-02       1.827310701284e+04 
       3.461419889513e-02       1.820152752042e+04 
       3.477288292894e-02       1.813033874316e+04 
       3.493232364607e-02       1.805892633148e+04 
       3.509254331325e-02       1.798768426893e+04 
       3.525356503111e-02       1.791638569922e+04 
       3.541541277452e-02       1.784501952102e+04 
       3.557811143544e-02       1.777408142079e+04 
       3.574168686835e-02       1.770229626589e+04 
       3.590616593859e-02       1.763142127670e+04 
       3.607157657363e-02       1.755964309944e+04 
       3.623794781778e-02       1.748870880013e+04 
       3.640530989026e-02       1.741708253023e+04 
       3.657369424726e-02       1.734555575727e+04 
       3.674313364794e-02       1.727408434630e+04 
       3.691366222502e-02       1.720253331664e+04 
       3.708531556009e-02       1.713095966760e+04 
       3.725813076412e-02       1.705963589320e+04 
       3.743214656367e-02       1.698818735292e+04 
       3.760740339312e-02       1.691674669733e+04 
       3.778394349363e-02       1.684511643112e+04 
       3.796181101920e-02       1.677330371183e+04 
       3.814105215071e-02       1.670157707221e+04 
       3.832171521837e-02       1.663014000661e+04 
       3.850385083362e-02       1.655818623995e+04 
       3.868751203109e-02       1.648629714779e+04 
       3.887275442178e-02       1.641459021036e+04 
       3.905963635837e-02       1.634282293917e+04 
       3.924821911395e-02       1.627081646848e+04 
       3.943856707529e-02       1.619822923475e+04 
       3.963074795237e-02       1.612599025408e+04 
       3.982483300553e-02       1.605417767386e+04 
       4.002089729221e-02       1.598161171985e+04 
       4.021901993529e-02       1.590916752256e+04 
       4.041928441526e-02       1.583634994459e+04 
       4.062177888886e-02       1.576371385493e+04 
       4.082659653698e-02       1.569101072664e+04 
       4.103383594519e-02       1.561757949234e+04 
       4.124360152052e-02       1.554431119136e+04 
       4.145600394867e-02       1.547108834180e+04 
       4.167116069640e-02       1.539761313063e+04 
       4.188919656449e-02       1.532362668325e+04 
       4.211024429751e-02       1.524971471402e+04 
       4.233444525720e-02       1.517546609784e+04 
       4.256195016781e-02       1.510094889789e+04 
       4.279291994247e-02       1.502625378285e+04 
       4.302752660119e-02       1.495171746153e+04 
       4.326595429305e-02       1.487644209579e+04 
       4.350840043650e-02       1.480071034515e+04 
       4.375507699451e-02       1.472469442262e+04 
       4.400621190371e-02       1.464847430566e+04 
       4.426205068002e-02       1.457172417597e+04 
       4.452285822699e-02       1.449455623737e+04 
       4.478892087788e-02       1.441668471301e+04 
       4.506054870775e-02       1.433854635131e+04 
       4.533807815875e-02       1.425991430710e+04 
       4.562187502964e-02       1.418067217665e+04 
       4.591233789058e-02       1.410120658599e+04 
       4.620990199579e-02       1.402074521712e+04 
       4.651504378169e-02       1.393919762665e+04 
       4.682828605565e-02       1.385768964546e+04 
       4.715020400294e-02       1.377491702340e+04 
       4.748143216648e-02       1.369090220231e+04 
       4.782267258840e-02       1.360635605343e+04 
       4.817470434481e-02       1.352105145263e+04 
       4.853839475861e-02       1.343440269551e+04 
       4.891471264227e-02       1.334604202846e+04 
       4.930474400792e-02       1.325684645750e+04 
       4.970971078927e-02       1.316621421881e+04 
       5.013099325737e-02       1.307394420416e+04 
       5.057015698680e-02       1.297987546104e+04 
       5.102898545121e-02       1.288401332793e+04 
       5.150951961093e-02       1.278594374607e+04 
       5.201410621462e-02       1.268549798281e+04 
       5.254545698925e-02       1.258269386891e+04 
       5.310672145281e-02       1.247657064131e+04 
       5.370157675978e-02       1.236724810882e+04 
       5.433433876492e-02       1.225444303764e+04 
       5.501009929791e-02       1.213714743048e+04 
       5.573489529681e-02       1.201468400424e+04 
       5.651591553371e-02       1.188687620966e+04 
       5.736174930386e-02       1.175237625508e+04 
       5.828267689321e-02       1.160992300635e+04 
       5.929099059755e-02       1.145784327123e+04 
       6.040131173846e-02       1.129477279561e+04 
       6.163082434954e-02       1.111775292671e+04 
