# Matter power spectrum P(k) at redshift z=0
# for k=1.04589e-05 to 0.628567 h/Mpc,
# number of wavenumbers equal to 560
#    1:k (h/Mpc)              2:P (Mpc/h)^3        
       1.045891713934e-05       5.095662566092e+01 
       2.336771440837e-05       1.106449166421e+02 
       3.632206756486e-05       1.693078937492e+02 
       4.935698251095e-05       2.275701680500e+02 
       6.250804630943e-05       2.857885909940e+02 
       7.581174587168e-05       3.442315265567e+02 
       8.930579687368e-05       4.031291082663e+02 
       1.030294872923e-04       4.626938044020e+02 
       1.170240399874e-04       5.231310026597e+02 
       1.313329987900e-04       5.846454199879e+02 
       1.460026425599e-04       6.474455758876e+02 
       1.610824316171e-04       7.117472724572e+02 
       1.766254907630e-04       7.777765943919e+02 
       1.926891327293e-04       8.457726282793e+02 
       2.093354252126e-04       9.159900974005e+02 
       2.266318035439e-04       9.887019682131e+02 
       2.446517293288e-04       1.064202043794e+03 
       2.634753928508e-04       1.142807608555e+03 
       2.831904533736e-04       1.224862062578e+03 
       3.038928063784e-04       1.310737510414e+03 
       3.256873598302e-04       1.400837228578e+03 
       3.486887923783e-04       1.495597884639e+03 
       3.730222545757e-04       1.595491339126e+03 
       3.988239594935e-04       1.701025761846e+03 
       4.262415915599e-04       1.812745829193e+03 
       4.554344426275e-04       1.931231568496e+03 
       4.865731636165e-04       2.057095409104e+03 
       5.198390012541e-04       2.190976999221e+03 
       5.554223767346e-04       2.333535172924e+03 
       5.935206626316e-04       2.485436658391e+03 
       6.343350337220e-04       2.647341142507e+03 
       6.780663146185e-04       2.819882536801e+03 
       7.249098286319e-04       3.003646676154e+03 
       7.750493695009e-04       3.199146253244e+03 
       8.286505630111e-04       3.406794260423e+03 
       8.858540397215e-04       3.626877757966e+03 
       9.467689718226e-04       3.859534488549e+03 
       1.011467598832e-03       4.104734734323e+03 
       1.079981344811e-03       4.362270774085e+03 
       1.152298998291e-03       4.631755694729e+03 
       1.228367197652e-03       4.912632050456e+03 
       1.308093181302e-03       5.204190009084e+03 
       1.391349484266e-03       5.505571167649e+03 
       1.477980050245e-03       5.815841708211e+03 
       1.567807119956e-03       6.134023136531e+03 
       1.660638260983e-03       6.459085167094e+03 
       1.756273000845e-03       6.789993278671e+03 
       1.854508675994e-03       7.125732641035e+03 
       1.955145274933e-03       7.465327113590e+03 
       2.057989202125e-03       7.807853350227e+03 
       2.162856002987e-03       8.152450183736e+03 
       2.269572163764e-03       8.498324699117e+03 
       2.377976137499e-03       8.844753333209e+03 
       2.487918756832e-03       9.191082167809e+03 
       2.599263185514e-03       9.536724079850e+03 
       2.711884541337e-03       9.881154867895e+03 
       2.825669299947e-03       1.022391221352e+04 
       2.940514565639e-03       1.056458504614e+04 
       3.056327274130e-03       1.090281440291e+04 
       3.173023374389e-03       1.123828478650e+04 
       3.290527022243e-03       1.157072303497e+04 
       3.408769807275e-03       1.189989101902e+04 
       3.527690026190e-03       1.222558298054e+04 
       3.647232009741e-03       1.254762123985e+04 
       3.767345506030e-03       1.286585466436e+04 
       3.887985120096e-03       1.318015290173e+04 
       4.009109807821e-03       1.349040839142e+04 
       4.130682421018e-03       1.379652900864e+04 
       4.252669299975e-03       1.409843772043e+04 
       4.375039909413e-03       1.439607178821e+04 
       4.497766513845e-03       1.468938784248e+04 
       4.620823888395e-03       1.497834345178e+04 
       4.744189061416e-03       1.526289969884e+04 
       4.867841085457e-03       1.554302703795e+04 
       4.991760833487e-03       1.581876527971e+04 
       5.115930817511e-03       1.609005694467e+04 
       5.240335027075e-03       1.635691736952e+04 
       5.364958785358e-03       1.661943776763e+04 
       5.489788620858e-03       1.687752946636e+04 
       5.614812152862e-03       1.713120982982e+04 
       5.740017989128e-03       1.737998745868e+04 
       5.865395634384e-03       1.762491233680e+04 
       5.990935408389e-03       1.786550686290e+04 
       6.116628372503e-03       1.810158814132e+04 
       6.242466263773e-03       1.833372687795e+04 
       6.368441435713e-03       1.856150249667e+04 
       6.494546805030e-03       1.878477067416e+04 
       6.620775803634e-03       1.900412806386e+04 
       6.747122335353e-03       1.921941675428e+04 
       6.873580736859e-03       1.943063335998e+04 
       7.000145742332e-03       1.963783357106e+04 
       7.126812451474e-03       1.984092154316e+04 
       7.253576300524e-03       2.003951756683e+04 
       7.380433035956e-03       2.023512541515e+04 
       7.507378690585e-03       2.042645169023e+04 
       7.634409561830e-03       2.061371219967e+04 
       7.761522191932e-03       2.079707976997e+04 
       7.888713349909e-03       2.097641901892e+04 
       8.015980015096e-03       2.115241130491e+04 
       8.143319362105e-03       2.132435737631e+04 
       8.270728747074e-03       2.149281724089e+04 
       8.398205695070e-03       2.165833326748e+04 
       8.525747888553e-03       2.181949992290e+04 
       8.653353156793e-03       2.197704586768e+04 
       8.781019466147e-03       2.213105076751e+04 
       8.908744911133e-03       2.228165667609e+04 
       9.036527706206e-03       2.242872261268e+04 
       9.164366178204e-03       2.257135727867e+04 
       9.292258759368e-03       2.271251004476e+04 
       9.420203980921e-03       2.284861087970e+04 
       9.548200467135e-03       2.298300534756e+04 
       9.676246929847e-03       2.311338129667e+04 
       9.804342163402e-03       2.324046354040e+04 
       9.932485039961e-03       2.336424568608e+04 
       1.006067450517e-02       2.348412423746e+04 
       1.018890957415e-02       2.360256864714e+04 
       1.031718932776e-02       2.371705483762e+04 
       1.044551290917e-02       2.382849252209e+04 
       1.057387952063e-02       2.393688833975e+04 
       1.070228842053e-02       2.404135264387e+04 
       1.083073892062e-02       2.414478098460e+04 
       1.095923038347e-02       2.424368163007e+04 
       1.108776222005e-02       2.434098151678e+04 
       1.121633388757e-02       2.443475826170e+04 
       1.134494488739e-02       2.452490209192e+04 
       1.147359476308e-02       2.461393440296e+04 
       1.160228309871e-02       2.469939375917e+04 
       1.173100951713e-02       2.478104089864e+04 
       1.185977367847e-02       2.486212550257e+04 
       1.198857527869e-02       2.493841340638e+04 
       1.211741404825e-02       2.501433333940e+04 
       1.224628975086e-02       2.508628336433e+04 
       1.237520218237e-02       2.515592922481e+04 
       1.250415116966e-02       2.522290530338e+04 
       1.263313656964e-02       2.528662031367e+04 
       1.276215826838e-02       2.534955464674e+04 
       1.289121618020e-02       2.540911517992e+04 
       1.302031024692e-02       2.546630115236e+04 
       1.314944043709e-02       2.552052204108e+04 
       1.327860674534e-02       2.557341562387e+04 
       1.340780919175e-02       2.562362747596e+04 
       1.353704782128e-02       2.567153317951e+04 
       1.366632270322e-02       2.571599585630e+04 
       1.379563393072e-02       2.575936039438e+04 
       1.392498162035e-02       2.580122223893e+04 
       1.405436591170e-02       2.584013082953e+04 
       1.418378696700e-02       2.587676255576e+04 
       1.431324497079e-02       2.591004082052e+04 
       1.444274012964e-02       2.594375782613e+04 
       1.457227267187e-02       2.597418471712e+04 
       1.470184284732e-02       2.600248634011e+04 
       1.483145092715e-02       2.602810921414e+04 
       1.496109720366e-02       2.605316228944e+04 
       1.509078199015e-02       2.607457533771e+04 
       1.522050562077e-02       2.609489450719e+04 
       1.535026845045e-02       2.611288149437e+04 
       1.548007085484e-02       2.613072285762e+04 
       1.560991323018e-02       2.614517152224e+04 
       1.573979599338e-02       2.615722143130e+04 
       1.586971958193e-02       2.616785017341e+04 
       1.599968445393e-02       2.617688654494e+04 
       1.612969108818e-02       2.618530290620e+04 
       1.625973998414e-02       2.619013914942e+04 
       1.638983166208e-02       2.619372169910e+04 
       1.651996666314e-02       2.619684945624e+04 
       1.665014554946e-02       2.619725023131e+04 
       1.678036890426e-02       2.619618949967e+04 
       1.691063733206e-02       2.619218567310e+04 
       1.704095145879e-02       2.618878681966e+04 
       1.717131193197e-02       2.618283882419e+04 
       1.730171942097e-02       2.617504689955e+04 
       1.743217461714e-02       2.616488675791e+04 
       1.756267823411e-02       2.615420111551e+04 
       1.769323100802e-02       2.614302954801e+04 
       1.782383369778e-02       2.612916158756e+04 
       1.795448708533e-02       2.611408794235e+04 
       1.808519197599e-02       2.609639002019e+04 
       1.821594919876e-02       2.607849386329e+04 
       1.834675960661e-02       2.605885853802e+04 
       1.847762407690e-02       2.603900352062e+04 
       1.860854351170e-02       2.601688419386e+04 
       1.873951883815e-02       2.599232458867e+04 
       1.887055100895e-02       2.596773212013e+04 
       1.900164100269e-02       2.594159917472e+04 
       1.913278982430e-02       2.591441385534e+04 
       1.926399850556e-02       2.588526718397e+04 
       1.939526810550e-02       2.585641080681e+04 
       1.952659971093e-02       2.582510791652e+04 
       1.965799443692e-02       2.579270546205e+04 
       1.978945342737e-02       2.575848410501e+04 
       1.992097785550e-02       2.572403116398e+04 
       2.005256892444e-02       2.568811696011e+04 
       2.018422786781e-02       2.565177928454e+04 
       2.031595595035e-02       2.561342707739e+04 
       2.044775446849e-02       2.557481942948e+04 
       2.057962475104e-02       2.553396534311e+04 
       2.071156815983e-02       2.549257758474e+04 
       2.084358609043e-02       2.545036164030e+04 
       2.097567997282e-02       2.540799374420e+04 
       2.110785127215e-02       2.536307966371e+04 
       2.124010148950e-02       2.531787256820e+04 
       2.137243216264e-02       2.527171691796e+04 
       2.150484486686e-02       2.522510671459e+04 
       2.163734121580e-02       2.517711905388e+04 
       2.176992286228e-02       2.512815650201e+04 
       2.190259149922e-02       2.507768087221e+04 
       2.203534886055e-02       2.502737196992e+04 
       2.216819672213e-02       2.497617558630e+04 
       2.230113690274e-02       2.492330404448e+04 
       2.243417126505e-02       2.486991877203e+04 
       2.256730171673e-02       2.481592820636e+04 
       2.270053021141e-02       2.476161129548e+04 
       2.283385874988e-02       2.470602671558e+04 
       2.296728938114e-02       2.464924443114e+04 
       2.310082420363e-02       2.459242089477e+04 
       2.323446536640e-02       2.453437990126e+04 
       2.336821507036e-02       2.447637363628e+04 
       2.350207556957e-02       2.441671597460e+04 
       2.363604917257e-02       2.435693671700e+04 
       2.377013824371e-02       2.429638263318e+04 
       2.390434520460e-02       2.423516200093e+04 
       2.403867253555e-02       2.417332481088e+04 
       2.417312277704e-02       2.411089487637e+04 
       2.430769853131e-02       2.404782993230e+04 
       2.444240246394e-02       2.398418554662e+04 
       2.457723730549e-02       2.392003206360e+04 
       2.471220585322e-02       2.385519969173e+04 
       2.484731097283e-02       2.378986044240e+04 
       2.498255560027e-02       2.372402873616e+04 
       2.511794274367e-02       2.365763222024e+04 
       2.525347548521e-02       2.359079458732e+04 
       2.538915698315e-02       2.352335302840e+04 
       2.552499047390e-02       2.345586626204e+04 
       2.566097927416e-02       2.338717472986e+04 
       2.579712678313e-02       2.331831537339e+04 
       2.593343648479e-02       2.324944598191e+04 
       2.606991195026e-02       2.317971545182e+04 
       2.620655684027e-02       2.310959974708e+04 
       2.634337490767e-02       2.303870928731e+04 
       2.648037000003e-02       2.296774409514e+04 
       2.661754606239e-02       2.289668263453e+04 
       2.675490714005e-02       2.282488464822e+04 
       2.689245738145e-02       2.275276915821e+04 
       2.703020104121e-02       2.268040270445e+04 
       2.716814248324e-02       2.260765028162e+04 
       2.730628618397e-02       2.253496739714e+04 
       2.744463673567e-02       2.246116810634e+04 
       2.758319884996e-02       2.238755902145e+04 
       2.772197736139e-02       2.231371855451e+04 
       2.786097723116e-02       2.223953985679e+04 
       2.800020355102e-02       2.216499127106e+04 
       2.813966154725e-02       2.209019491416e+04 
       2.827935658488e-02       2.201503205227e+04 
       2.841929417197e-02       2.193954301275e+04 
       2.855947996415e-02       2.186393254910e+04 
       2.869991976925e-02       2.178841816833e+04 
       2.884061955220e-02       2.171226060723e+04 
       2.898158544005e-02       2.163603512465e+04 
       2.912282372722e-02       2.155960491357e+04 
       2.926434088098e-02       2.148298333731e+04 
       2.940614354710e-02       2.140627211198e+04 
       2.954823855579e-02       2.132912819773e+04 
       2.969063292783e-02       2.125199142687e+04 
       2.983333388099e-02       2.117481976355e+04 
       2.997634883672e-02       2.109739508096e+04 
       3.011968542709e-02       2.101980156183e+04 
       3.026335150205e-02       2.094190643310e+04 
       3.040735513701e-02       2.086419290384e+04 
       3.055170464070e-02       2.078623390626e+04 
       3.069640856345e-02       2.070823901297e+04 
       3.084147570576e-02       2.062985964903e+04 
       3.098691512729e-02       2.055152313571e+04 
       3.113273615622e-02       2.047318759559e+04 
       3.127894839912e-02       2.039485729320e+04 
       3.142556175114e-02       2.031617282889e+04 
       3.157258640674e-02       2.023748643116e+04 
       3.172003287098e-02       2.015880555679e+04 
       3.186791197119e-02       2.008026049434e+04 
       3.201623486932e-02       2.000131232371e+04 
       3.216501307484e-02       1.992243588809e+04 
       3.231425845821e-02       1.984354445245e+04 
       3.246398326513e-02       1.976480356273e+04 
       3.261420013133e-02       1.968566897940e+04 
       3.276492209824e-02       1.960681247125e+04 
       3.291616262935e-02       1.952767624776e+04 
       3.306793562744e-02       1.944878704154e+04 
       3.322025545272e-02       1.936956565490e+04 
       3.337313694179e-02       1.929051021180e+04 
       3.352659542777e-02       1.921158226674e+04 
       3.368064676131e-02       1.913231552545e+04 
       3.383530733285e-02       1.905330432699e+04 
       3.399059409605e-02       1.897426959646e+04 
       3.414652459243e-02       1.889513763137e+04 
       3.430311697744e-02       1.881610016302e+04 
       3.446039004799e-02       1.873707385065e+04 
       3.461836327146e-02       1.865810422780e+04 
       3.477705681639e-02       1.857907813052e+04 
       3.493649158501e-02       1.850013790450e+04 
       3.509668924751e-02       1.842118469114e+04 
       3.525767227849e-02       1.834225457090e+04 
       3.541946399548e-02       1.826340655074e+04 
       3.558208859980e-02       1.818452338378e+04 
       3.574557121995e-02       1.810576619990e+04 
       3.590993795763e-02       1.802695488551e+04 
       3.607521593664e-02       1.794819848730e+04 
       3.624143335493e-02       1.786952721244e+04 
       3.640861953989e-02       1.779082093559e+04 
       3.657680500733e-02       1.771236191845e+04 
       3.674602152422e-02       1.763375771517e+04 
       3.691630217569e-02       1.755512042565e+04 
       3.708768143650e-02       1.747654393840e+04 
       3.726019524741e-02       1.739824220918e+04 
       3.743388109683e-02       1.731965841625e+04 
       3.760877810815e-02       1.724126605940e+04 
       3.778492713333e-02       1.716308327243e+04 
       3.796237085323e-02       1.708458591330e+04 
       3.814115388524e-02       1.700625403052e+04 
       3.832132289885e-02       1.692817268094e+04 
       3.850292674006e-02       1.684977452230e+04 
       3.868601656503e-02       1.677181452796e+04 
       3.887064598432e-02       1.669344435327e+04 
       3.905687121830e-02       1.661526740972e+04 
       3.924475126499e-02       1.653714759929e+04 
       3.943434808151e-02       1.645890788190e+04 
       3.962572678042e-02       1.638092304031e+04 
       3.981895584250e-02       1.630283482620e+04 
       4.001410734752e-02       1.622492461691e+04 
       4.021125722498e-02       1.614665775343e+04 
       4.041048552680e-02       1.606845510914e+04 
       4.061187672434e-02       1.599038736858e+04 
       4.081552003233e-02       1.591229065839e+04 
       4.102150976266e-02       1.583411483085e+04 
       4.122994571148e-02       1.575612377959e+04 
       4.144093358316e-02       1.567769919360e+04 
       4.165458545558e-02       1.559938673109e+04 
       4.187102029147e-02       1.552111646961e+04 
       4.209036450143e-02       1.544269948288e+04 
       4.231275256477e-02       1.536421125521e+04 
       4.253832771557e-02       1.528556339568e+04 
       4.276724270203e-02       1.520696521221e+04 
       4.299966062869e-02       1.512814173026e+04 
       4.323575589238e-02       1.504930609678e+04 
       4.347571522456e-02       1.497026782596e+04 
       4.371973885465e-02       1.489109957426e+04 
       4.396804181118e-02       1.481168574592e+04 
       4.422085538071e-02       1.473220393729e+04 
       4.447842874738e-02       1.465237872308e+04 
       4.474103084024e-02       1.457241523605e+04 
       4.500895242001e-02       1.449224836285e+04 
       4.528250844287e-02       1.441169606680e+04 
       4.556204074537e-02       1.433089789950e+04 
       4.584792110333e-02       1.424987302371e+04 
       4.614055472727e-02       1.416834567642e+04 
       4.644038426948e-02       1.408653733115e+04 
       4.674789443274e-02       1.400426522460e+04 
       4.706361728955e-02       1.392150916778e+04 
       4.738813844302e-02       1.383853805802e+04 
       4.772210418971e-02       1.375488205228e+04 
       4.806622987926e-02       1.367022604699e+04 
       4.842130971034e-02       1.358550523324e+04 
       4.878822825760e-02       1.349986422028e+04 
       4.916797409410e-02       1.341345211823e+04 
       4.956165596200e-02       1.332581525365e+04 
       4.997052205641e-02       1.323782779597e+04 
       5.039598312950e-02       1.314848046729e+04 
       5.083964030375e-02       1.305803639100e+04 
       5.130331871447e-02       1.296636444480e+04 
       5.178910839643e-02       1.287280292627e+04 
       5.229941420251e-02       1.277863763839e+04 
       5.283701701126e-02       1.268209368960e+04 
       5.340514905880e-02       1.258347504433e+04 
       5.400758692552e-02       1.248253551374e+04 
       5.464876649658e-02       1.237872891052e+04 
       5.533392501968e-02       1.227182994689e+04 
       5.606927599215e-02       1.216131704276e+04 
       5.686222255659e-02       1.204633171980e+04 
       5.772161339151e-02       1.192616684897e+04 
       5.865803982566e-02       1.179921241144e+04 
       5.968416047960e-02       1.166409786366e+04 
       6.081501387562e-02       1.151914849065e+04 
       6.206823047900e-02       1.136094290049e+04 
