# Matter power spectrum P(k) at redshift z=0
# for k=1.04383e-05 to 0.627318 h/Mpc,
# number of wavenumbers equal to 560
#    1:k (h/Mpc)              2:P (Mpc/h)^3        
       1.043826635766e-05       5.124807865728e+01 
       2.332539659092e-05       1.112952983362e+02 
       3.625784574868e-05       1.703101778175e+02 
       4.927044303038e-05       2.289206254954e+02 
       6.239859386685e-05       2.874851773027e+02 
       7.567859592248e-05       3.462732872020e+02 
       8.914796520549e-05       4.055159064440e+02 
       1.028457766281e-04       4.654261770845e+02 
       1.168130233910e-04       5.262100663864e+02 
       1.310929995999e-04       5.880728010366e+02 
       1.457317105296e-04       6.512233606923e+02 
       1.607783148873e-04       7.158779624308e+02 
       1.762856032524e-04       7.822630610567e+02 
       1.923105164920e-04       8.506180796060e+02 
       2.089147072918e-04       9.211980408771e+02 
       2.261651468582e-04       9.942761590303e+02 
       2.441347771668e-04       1.070146450786e+03 
       2.629032066466e-04       1.149126366462e+03 
       2.825574436116e-04       1.231559416066e+03 
       3.031926567542e-04       1.317817779582e+03 
       3.249129452226e-04       1.408304753058e+03 
       3.478320918025e-04       1.503456997608e+03 
       3.720742611360e-04       1.603746334848e+03 
       3.977745904906e-04       1.709680917490e+03 
       4.250796033511e-04       1.821805439881e+03 
       4.541473566018e-04       1.940700051605e+03 
       4.851472116603e-04       2.066977500416e+03 
       5.182591012013e-04       2.201278028827e+03 
       5.536721502175e-04       2.344261494542e+03 
       5.915825090297e-04       2.496596236060e+03 
       6.321902739106e-04       2.658944293212e+03 
       6.756954162134e-04       2.831942855914e+03 
       7.222927197163e-04       3.016182165920e+03 
       7.721658399953e-04       3.212180484258e+03 
       8.254807421404e-04       3.420357592639e+03 
       8.823789255862e-04       3.641008470905e+03 
       9.429709770599e-04       3.874279634326e+03 
       1.007331067623e-03       4.120150570754e+03 
       1.075492993890e-03       4.378422711670e+03 
       1.147448239887e-03       4.648717612827e+03 
       1.223146315245e-03       4.930485055116e+03 
       1.302497347336e-03       5.223020663911e+03 
       1.385376628546e-03       5.525470869573e+03 
       1.471630604451e-03       5.836900260656e+03 
       1.561083674463e-03       6.156330782671e+03 
       1.653545173750e-03       6.482729518612e+03 
       1.748815995306e-03       6.815057693842e+03 
       1.846694457704e-03       7.152295099380e+03 
       1.946981187549e-03       7.493459343206e+03 
       2.049482934277e-03       7.837620699676e+03 
       2.154015349950e-03       8.183911097023e+03 
       2.260404842327e-03       8.531530622862e+03 
       2.368489648868e-03       8.879749151594e+03 
       2.478120290656e-03       9.227905929878e+03 
       2.589159557585e-03       9.575407144245e+03 
       2.701482157856e-03       9.921723520528e+03 
       2.814974142007e-03       1.026638420797e+04 
       2.929532188568e-03       1.060897358499e+04 
       3.045062817332e-03       1.094912651258e+04 
       3.161481578256e-03       1.128652238111e+04 
       3.278712249503e-03       1.162088262136e+04 
       3.396686066824e-03       1.195196573660e+04 
       3.515340997979e-03       1.227956053827e+04 
       3.634621069724e-03       1.260348701683e+04 
       3.754475750476e-03       1.292359198381e+04 
       3.874859388833e-03       1.323974246440e+04 
       3.995730706134e-03       1.355182942508e+04 
       4.117052340074e-03       1.385975874329e+04 
       4.238790435701e-03       1.416345563362e+04 
       4.360914279858e-03       1.446285645441e+04 
       4.483395975059e-03       1.475791134342e+04 
       4.606210148911e-03       1.504858280153e+04 
       4.729333695411e-03       1.533483152827e+04 
       4.852745544707e-03       1.561662261356e+04 
       4.976426458188e-03       1.589400139048e+04 
       5.100358846087e-03       1.616687594882e+04 
       5.224526605047e-03       1.643538229349e+04 
       5.348914973374e-03       1.669944809250e+04 
       5.473510401950e-03       1.695844432413e+04 
       5.598300439017e-03       1.721370376169e+04 
       5.723273627235e-03       1.746498957275e+04 
       5.848419411616e-03       1.771138401850e+04 
       5.973728057087e-03       1.795337874095e+04 
       6.099190574596e-03       1.819121854615e+04 
       6.224798654794e-03       1.842461290231e+04 
       6.350544608446e-03       1.865374568014e+04 
       6.476421312822e-03       1.887861727961e+04 
       6.602422163408e-03       1.909927832194e+04 
       6.728541030358e-03       1.931581151939e+04 
       6.854772219169e-03       1.952816712005e+04 
       6.981110435126e-03       1.973643007501e+04 
       7.107550751123e-03       1.994062247174e+04 
       7.234088578496e-03       2.014079105781e+04 
       7.360719640559e-03       2.033694672184e+04 
       7.487439948560e-03       2.052918148958e+04 
       7.614245779818e-03       2.071747959530e+04 
       7.741133657814e-03       2.090189686336e+04 
       7.868100334038e-03       2.108252780867e+04 
       7.995142771432e-03       2.125936294391e+04 
       8.122258129258e-03       2.143240963171e+04 
       8.249443749260e-03       2.160179123502e+04 
       8.376697142999e-03       2.176747035882e+04 
       8.504015980244e-03       2.192948463268e+04 
       8.631398078325e-03       2.208794857193e+04 
       8.758841392359e-03       2.224282160142e+04 
       8.886344006260e-03       2.239416562753e+04 
       9.013904124481e-03       2.254202688650e+04 
       9.141520064405e-03       2.268643605404e+04 
       9.269190249328e-03       2.282738335784e+04 
       9.396913202003e-03       2.296499755776e+04 
       9.524687538668e-03       2.309933481715e+04 
       9.652511963537e-03       2.323032050100e+04 
       9.780385263704e-03       2.335788953191e+04 
       9.908306304436e-03       2.348267239674e+04 
       1.003627402481e-02       2.360403887430e+04 
       1.016428743368e-02       2.372224075208e+04 
       1.029234560591e-02       2.383736005221e+04 
       1.042044767896e-02       2.394936650872e+04 
       1.054859284960e-02       2.405833086452e+04 
       1.067678037097e-02       2.416429553798e+04 
       1.080500954978e-02       2.426728205206e+04 
       1.093327974376e-02       2.436732940574e+04 
       1.106159035922e-02       2.446424116858e+04 
       1.118994084889e-02       2.455864793448e+04 
       1.131833070979e-02       2.465004957228e+04 
       1.144675948133e-02       2.473871808338e+04 
       1.157522674352e-02       2.482460212220e+04 
       1.170373211530e-02       2.490755343795e+04 
       1.183227525302e-02       2.498812619322e+04 
       1.196085584893e-02       2.506587165304e+04 
       1.208947362993e-02       2.514094428909e+04 
       1.221812835625e-02       2.521342193837e+04 
       1.234681982033e-02       2.528333072891e+04 
       1.247554784573e-02       2.535063267752e+04 
       1.260431228614e-02       2.541548240216e+04 
       1.273311302444e-02       2.547772922973e+04 
       1.286194997186e-02       2.553759483127e+04 
       1.299082306716e-02       2.559504159198e+04 
       1.311973227591e-02       2.565005627053e+04 
       1.324867758979e-02       2.570269186124e+04 
       1.337765902598e-02       2.575276307325e+04 
       1.350667662659e-02       2.580068972835e+04 
       1.363573045808e-02       2.584664089223e+04 
       1.376482061081e-02       2.589011002769e+04 
       1.389394719860e-02       2.593132498362e+04 
       1.402311035831e-02       2.597024212090e+04 
       1.415231024943e-02       2.600697093066e+04 
       1.428154705384e-02       2.604183886127e+04 
       1.441082097541e-02       2.607409593904e+04 
       1.454013223981e-02       2.610465810430e+04 
       1.466948109422e-02       2.613322545634e+04 
       1.479886780715e-02       2.615956160212e+04 
       1.492829266827e-02       2.618389679807e+04 
       1.505775598822e-02       2.620619258168e+04 
       1.518725809853e-02       2.622653624186e+04 
       1.531679935148e-02       2.624496347219e+04 
       1.544638012005e-02       2.626127550185e+04 
       1.557600079786e-02       2.627613141211e+04 
       1.570566179912e-02       2.628886953572e+04 
       1.583536355865e-02       2.629975772372e+04 
       1.596510653188e-02       2.630881123585e+04 
       1.609489119486e-02       2.631614869703e+04 
       1.622471804436e-02       2.632166709929e+04 
       1.635458759788e-02       2.632544458672e+04 
       1.648450039381e-02       2.632749889077e+04 
       1.661445699146e-02       2.632785932160e+04 
       1.674445797127e-02       2.632648949762e+04 
       1.687450393487e-02       2.632351760985e+04 
       1.700459550533e-02       2.631897199690e+04 
       1.713473332726e-02       2.631269519736e+04 
       1.726491806708e-02       2.630492248398e+04 
       1.739515041315e-02       2.629522520226e+04 
       1.752543107609e-02       2.628470376094e+04 
       1.765576078897e-02       2.627227065051e+04 
       1.778614030758e-02       2.625842594453e+04 
       1.791657041074e-02       2.624311041381e+04 
       1.804705190058e-02       2.622629583204e+04 
       1.817758560283e-02       2.620797723315e+04 
       1.830817236720e-02       2.618830030515e+04 
       1.843881306768e-02       2.616726797930e+04 
       1.856950860296e-02       2.614485497790e+04 
       1.870025989673e-02       2.612113219224e+04 
       1.883106789817e-02       2.609602866392e+04 
       1.896193358229e-02       2.606967826131e+04 
       1.909285795042e-02       2.604189744820e+04 
       1.922384203062e-02       2.601274187173e+04 
       1.935488687816e-02       2.598293893814e+04 
       1.948599357603e-02       2.595155705675e+04 
       1.961716323539e-02       2.591894152267e+04 
       1.974839699616e-02       2.588516037487e+04 
       1.987969602752e-02       2.585021458378e+04 
       2.001106152847e-02       2.581410855079e+04 
       2.014249472843e-02       2.577689773020e+04 
       2.027399688783e-02       2.573853849004e+04 
       2.040556929874e-02       2.569914305784e+04 
       2.053721328550e-02       2.565865170771e+04 
       2.066893020540e-02       2.561711431592e+04 
       2.080072144934e-02       2.557449530316e+04 
       2.093258844257e-02       2.553077734111e+04 
       2.106453264540e-02       2.548598861516e+04 
       2.119655555397e-02       2.544054060348e+04 
       2.132865870100e-02       2.539425141255e+04 
       2.146084365663e-02       2.534679285985e+04 
       2.159311202922e-02       2.529836578552e+04 
       2.172546546623e-02       2.524907908673e+04 
       2.185790565509e-02       2.519887464612e+04 
       2.199043432409e-02       2.514779067819e+04 
       2.212305324335e-02       2.509588704685e+04 
       2.225576422579e-02       2.504312167354e+04 
       2.238856912811e-02       2.498944625095e+04 
       2.252146985180e-02       2.493503897192e+04 
       2.265446834424e-02       2.487983461839e+04 
       2.278756659980e-02       2.482392739661e+04 
       2.292076666093e-02       2.476716175227e+04 
       2.305407061934e-02       2.470931622686e+04 
       2.318748061721e-02       2.465111473788e+04 
       2.332099884843e-02       2.459214362427e+04 
       2.345462755986e-02       2.453286956957e+04 
       2.358836905267e-02       2.447256234955e+04 
       2.372222568368e-02       2.441161964908e+04 
       2.385619986679e-02       2.434997770700e+04 
       2.399029407438e-02       2.428778079255e+04 
       2.412451083886e-02       2.422472451034e+04 
       2.425885275417e-02       2.416119452609e+04 
       2.439332247740e-02       2.409686989913e+04 
       2.452792273041e-02       2.403262724590e+04 
       2.466265630154e-02       2.396740137847e+04 
       2.479752604735e-02       2.390158407500e+04 
       2.493253489445e-02       2.383525197330e+04 
       2.506768584136e-02       2.376841608156e+04 
       2.520298196041e-02       2.370103300997e+04 
       2.533842639979e-02       2.363311034958e+04 
       2.547402238556e-02       2.356480442476e+04 
       2.560977322381e-02       2.349597809289e+04 
       2.574568230287e-02       2.342668580713e+04 
       2.588175309554e-02       2.335697231574e+04 
       2.601798916151e-02       2.328678858956e+04 
       2.615439414974e-02       2.321613713404e+04 
       2.629097180102e-02       2.314510335876e+04 
       2.642772595056e-02       2.307372721602e+04 
       2.656466053067e-02       2.300189829421e+04 
       2.670177957361e-02       2.292958078679e+04 
       2.683908721444e-02       2.285680865754e+04 
       2.697658769400e-02       2.278410417372e+04 
       2.711428536207e-02       2.271108539669e+04 
       2.725218468055e-02       2.263750747233e+04 
       2.739029022681e-02       2.256373109505e+04 
       2.752860669712e-02       2.248943906896e+04 
       2.766713891027e-02       2.241498716779e+04 
       2.780589181127e-02       2.234018675773e+04 
       2.794487047520e-02       2.226512391684e+04 
       2.808408011121e-02       2.218981878894e+04 
       2.822352606671e-02       2.211419229444e+04 
       2.836321383163e-02       2.203839332342e+04 
       2.850314904294e-02       2.196228630418e+04 
       2.864333748929e-02       2.188576531600e+04 
       2.878378511585e-02       2.180953580048e+04 
       2.892449802932e-02       2.173274171215e+04 
       2.906548250319e-02       2.165583277039e+04 
       2.920674498313e-02       2.157874158644e+04 
       2.934829209272e-02       2.150142425075e+04 
       2.949013063924e-02       2.142392290558e+04 
       2.963226761990e-02       2.134626803819e+04 
       2.977471022814e-02       2.126844120704e+04 
       2.991746586032e-02       2.119031132792e+04 
       3.006054212267e-02       2.111238286505e+04 
       3.020394683845e-02       2.103415566334e+04 
       3.034768805556e-02       2.095576793462e+04 
       3.049177405432e-02       2.087729210167e+04 
       3.063621335576e-02       2.079874031152e+04 
       3.078101473009e-02       2.072004387203e+04 
       3.092618720572e-02       2.064108320925e+04 
       3.107174007855e-02       2.056209696863e+04 
       3.121768292177e-02       2.048337971577e+04 
       3.136402559604e-02       2.040434660750e+04 
       3.151077826020e-02       2.032520521307e+04 
       3.165795138241e-02       2.024602734082e+04 
       3.180555575188e-02       2.016673127033e+04 
       3.195360249109e-02       2.008746650154e+04 
       3.210210306865e-02       2.000803269063e+04 
       3.225106931275e-02       1.992869141722e+04 
       3.240051342527e-02       1.984924099454e+04 
       3.255044799657e-02       1.976977968174e+04 
       3.270088602105e-02       1.969029070809e+04 
       3.285184091345e-02       1.961074765002e+04 
       3.300332652598e-02       1.953122317816e+04 
       3.315535716637e-02       1.945171226437e+04 
       3.330794761682e-02       1.937195679036e+04 
       3.346111315389e-02       1.929251589354e+04 
       3.361486956955e-02       1.921289956709e+04 
       3.376923319325e-02       1.913335244053e+04 
       3.392422091524e-02       1.905377860799e+04 
       3.407985021113e-02       1.897426207204e+04 
       3.423613916781e-02       1.889475069755e+04 
       3.439310651082e-02       1.881521053505e+04 
       3.455077163323e-02       1.873568189353e+04 
       3.470915462622e-02       1.865620722878e+04 
       3.486827631134e-02       1.857676084654e+04 
       3.502815827472e-02       1.849732137839e+04 
       3.518882290327e-02       1.841790223863e+04 
       3.535029342299e-02       1.833852940882e+04 
       3.551259393964e-02       1.825924106250e+04 
       3.567574948191e-02       1.817987901043e+04 
       3.583978604715e-02       1.810065967758e+04 
       3.600473065007e-02       1.802144385308e+04 
       3.617061137445e-02       1.794225723649e+04 
       3.633745742817e-02       1.786310220364e+04 
       3.650529920181e-02       1.778398130988e+04 
       3.667416833114e-02       1.770491251780e+04 
       3.684409776362e-02       1.762584389705e+04 
       3.701512182957e-02       1.754689192715e+04 
       3.718727631805e-02       1.746797369175e+04 
       3.736059855804e-02       1.738902779637e+04 
       3.753512750528e-02       1.731018609693e+04 
       3.771090383532e-02       1.723129580213e+04 
       3.788797004323e-02       1.715252355559e+04 
       3.806637055057e-02       1.707378165209e+04 
       3.824615182035e-02       1.699507150529e+04 
       3.842736248055e-02       1.691639045292e+04 
       3.861005345707e-02       1.683768560346e+04 
       3.879427811699e-02       1.675907408053e+04 
       3.898009242301e-02       1.668047359119e+04 
       3.916755510029e-02       1.660189680636e+04 
       3.935672781663e-02       1.652332540500e+04 
       3.954767537762e-02       1.644479438747e+04 
       3.974046593798e-02       1.636620343561e+04 
       3.993517123078e-02       1.628769163611e+04 
       4.013186681654e-02       1.620916291503e+04 
       4.033063235403e-02       1.613038183883e+04 
       4.053155189521e-02       1.605185125750e+04 
       4.073471420695e-02       1.597350981340e+04 
       4.094021312235e-02       1.589491682370e+04 
       4.114814792496e-02       1.581630310635e+04 
       4.135862376974e-02       1.573764267159e+04 
       4.157175214491e-02       1.565893737089e+04 
       4.178765137950e-02       1.558017268350e+04 
       4.200644720205e-02       1.550135569818e+04 
       4.222827335679e-02       1.542246974183e+04 
       4.245327228428e-02       1.534347911373e+04 
       4.268159587479e-02       1.526439601123e+04 
       4.291340630379e-02       1.518508570805e+04 
       4.314887696027e-02       1.510589193367e+04 
       4.338819348050e-02       1.502629764685e+04 
       4.363155490151e-02       1.494689019078e+04 
       4.387917495126e-02       1.486711654995e+04 
       4.413128349477e-02       1.478712679529e+04 
       4.438812815931e-02       1.470700732099e+04 
       4.464997616507e-02       1.462663713855e+04 
       4.491711639287e-02       1.454606239610e+04 
       4.518986172597e-02       1.446514761377e+04 
       4.546855170949e-02       1.438399115718e+04 
       4.575355557978e-02       1.430248421894e+04 
       4.604527572544e-02       1.422069781705e+04 
       4.634415165407e-02       1.413839563756e+04 
       4.665066455388e-02       1.405587238707e+04 
       4.696534255717e-02       1.397282661872e+04 
       4.728876683551e-02       1.388915714953e+04 
       4.762157868441e-02       1.380523135666e+04 
       4.796448778977e-02       1.372038392565e+04 
       4.831828191229e-02       1.363516686402e+04 
       4.868383828012e-02       1.354917469429e+04 
       4.906213704899e-02       1.346236216253e+04 
       4.945427727602e-02       1.337472807943e+04 
       4.986149596312e-02       1.328608910212e+04 
       5.028519086672e-02       1.319660491366e+04 
       5.072694794843e-02       1.310590356945e+04 
       5.118857456953e-02       1.301381560680e+04 
       5.167213982136e-02       1.292056514054e+04 
       5.218002375166e-02       1.282547910227e+04 
       5.271497770805e-02       1.272878233078e+04 
       5.328019859113e-02       1.262999930542e+04 
       5.387942049594e-02       1.252886772512e+04 
       5.451702800440e-02       1.242502755279e+04 
       5.519819619667e-02       1.231816563003e+04 
       5.592906307953e-02       1.220758132233e+04 
       5.671694013804e-02       1.209253104972e+04 
       5.757056516916e-02       1.197239345110e+04 
       5.850039660548e-02       1.184565424279e+04 
       5.951893671599e-02       1.171100437784e+04 
       6.064104631081e-02       1.156636337340e+04 
       6.188416641949e-02       1.140885526132e+04 
