# Matter power spectrum P(k) at redshift z=0
# for k=1.04564e-05 to 0.628087 h/Mpc,
# number of wavenumbers equal to 560
#    1:k (h/Mpc)              2:P (Mpc/h)^3        
       1.045636895265e-05       5.098370954649e+01 
       2.335681618982e-05       1.106799301187e+02 
       3.630274238454e-05       1.693507458209e+02 
       4.932908535165e-05       2.276205007587e+02 
       6.247136229241e-05       2.858458547842e+02 
       7.576598744715e-05       3.442950020614e+02 
       8.925059993133e-05       4.031978794534e+02 
       1.029644061278e-04       4.627667565427e+02 
       1.169485410412e-04       5.232068053950e+02 
       1.312464530535e-04       5.847225072015e+02 
       1.459043165275e-04       6.475221139141e+02 
       1.609714766394e-04       7.118211397161e+02 
       1.765009306446e-04       7.778453338947e+02 
       1.925498493960e-04       8.458334214625e+02 
       2.091801422688e-04       9.160397076025e+02 
       2.264590675403e-04       9.887366949745e+02 
       2.444598885765e-04       1.064217664647e+03 
       2.632625736541e-04       1.142799317176e+03 
       2.829545336198e-04       1.224824394832e+03 
       3.036313865294e-04       1.310664273838e+03 
       3.253977315225e-04       1.400721425878e+03 
       3.483679050741e-04       1.495431640570e+03 
       3.726666810298e-04       1.595265814215e+03 
       3.984298612361e-04       1.700731097822e+03 
       4.258046861479e-04       1.812371100386e+03 
       4.549499750910e-04       1.930764745302e+03 
       4.860358853000e-04       2.056523385257e+03 
       5.192431600636e-04       2.190285651319e+03 
       5.547617235424e-04       2.332709501367e+03 
       5.927884790827e-04       2.484461000721e+03 
       6.335241866938e-04       2.646199496114e+03 
       6.771693418219e-04       2.818558984955e+03 
       7.239190580442e-04       3.002125951813e+03 
       7.739570723282e-04       3.197414378135e+03 
       8.274491357851e-04       3.404839249561e+03 
       8.845362063735e-04       3.624690424248e+03 
       9.453279919841e-04       3.857109166402e+03 
       1.009897465276e-03       4.102069918267e+03 
       1.078276951960e-03       4.359369661550e+03 
       1.150456265740e-03       4.628626413030e+03 
       1.226383137608e-03       4.909287807409e+03 
       1.305965905806e-03       5.200648816193e+03 
       1.389078155538e-03       5.501856086313e+03 
       1.475564783850e-03       5.811978226205e+03 
       1.565248854569e-03       6.130040909528e+03 
       1.657938609891e-03       6.455015905107e+03 
       1.753434099229e-03       6.785870474370e+03 
       1.851533035295e-03       7.121590668830e+03 
       1.952035652127e-03       7.461200488882e+03 
       2.054748488290e-03       7.803776455679e+03 
       2.159487132652e-03       8.148456392492e+03 
       2.266078044436e-03       8.494445928096e+03 
       2.374359597409e-03       8.841019980607e+03 
       2.484182508283e-03       9.187522536439e+03 
       2.595409801016e-03       9.533364384372e+03 
       2.707916439826e-03       9.878020325415e+03 
       2.821588740688e-03       1.022102318576e+04 
       2.936323647786e-03       1.056196363371e+04 
       3.052027940280e-03       1.090047809894e+04 
       3.168617416838e-03       1.123625131573e+04 
       3.286016090946e-03       1.156900781335e+04 
       3.404155418756e-03       1.189851022698e+04 
       3.522973572876e-03       1.222454947199e+04 
       3.642414769327e-03       1.254694933514e+04 
       3.762428650618e-03       1.286555833383e+04 
       3.882969724938e-03       1.318024524877e+04 
       4.003996859564e-03       1.349090198353e+04 
       4.125472825399e-03       1.379743508169e+04 
       4.247363888933e-03       1.409977055173e+04 
       4.369639447637e-03       1.439784271546e+04 
       4.492271704761e-03       1.469160386600e+04 
       4.615235379631e-03       1.498101326439e+04 
       4.738507449771e-03       1.526603314163e+04 
       4.862066921413e-03       1.554663257806e+04 
       4.985894625293e-03       1.582284373593e+04 
       5.109973034893e-03       1.609461727905e+04 
       5.234286104582e-03       1.636196986004e+04 
       5.358819125400e-03       1.662496358612e+04 
       5.483558596448e-03       1.688357309867e+04 
       5.608492110097e-03       1.713776190271e+04 
       5.733608249445e-03       1.738711716947e+04 
       5.858896496587e-03       1.763257404323e+04 
       5.984347150503e-03       1.787368551788e+04 
       6.109951253444e-03       1.811049647655e+04 
       6.235700524867e-03       1.834301633812e+04 
       6.361587302077e-03       1.857123203631e+04 
       6.487604486826e-03       1.879529973611e+04 
       6.613745497207e-03       1.901516379667e+04 
       6.740004224278e-03       1.923084539053e+04 
       6.866374992881e-03       1.944240782084e+04 
       6.992852526232e-03       1.965001298862e+04 
       7.119431913861e-03       1.985352442262e+04 
       7.246108582556e-03       2.005302228288e+04 
       7.372878269998e-03       2.024860908254e+04 
       7.499737000815e-03       2.044050508698e+04 
       7.626681064796e-03       2.062821441390e+04 
       7.753706997055e-03       2.081243228741e+04 
       7.880811559956e-03       2.099258289253e+04 
       8.007991726606e-03       2.116890424298e+04 
       8.135244665787e-03       2.134153020242e+04 
       8.262567728168e-03       2.151019692726e+04 
       8.389958433682e-03       2.167553153510e+04 
       8.517414459970e-03       2.183813899906e+04 
       8.644933631761e-03       2.199624712014e+04 
       8.772513911142e-03       2.215080748733e+04 
       8.900153388597e-03       2.230185636268e+04 
       9.027850274781e-03       2.244948511664e+04 
       9.155602892933e-03       2.259281088838e+04 
       9.283409671897e-03       2.273362936668e+04 
       9.411269139671e-03       2.287110096037e+04 
       9.539179917472e-03       2.300521957683e+04 
       9.667140714236e-03       2.313685864685e+04 
       9.795150321551e-03       2.326358483100e+04 
       9.923207608953e-03       2.338793642051e+04 
       1.005131151959e-02       2.350927139923e+04 
       1.017946106619e-02       2.362732284795e+04 
       1.030765532735e-02       2.374322584323e+04 
       1.043589344403e-02       2.385428065635e+04 
       1.056417461643e-02       2.396405692524e+04 
       1.069249810092e-02       2.407005806586e+04 
       1.082086320734e-02       2.417301014297e+04 
       1.094926929641e-02       2.427254859207e+04 
       1.107771577733e-02       2.437028072387e+04 
       1.120620210560e-02       2.446400804926e+04 
       1.133472778091e-02       2.455605785434e+04 
       1.146329234528e-02       2.464475021760e+04 
       1.159189538120e-02       2.472998687163e+04 
       1.172053651006e-02       2.481407881443e+04 
       1.184921539051e-02       2.489372466498e+04 
       1.197793171713e-02       2.497113358595e+04 
       1.210668521900e-02       2.504757203320e+04 
       1.223547565852e-02       2.511924362788e+04 
       1.236430283023e-02       2.518957410291e+04 
       1.249316655973e-02       2.525704382131e+04 
       1.262206670272e-02       2.532170882108e+04 
       1.275100314405e-02       2.538433069512e+04 
       1.287997579686e-02       2.544554106345e+04 
       1.300898460180e-02       2.550306440416e+04 
       1.313802952628e-02       2.555759175082e+04 
       1.326711056380e-02       2.560989662834e+04 
       1.339622773335e-02       2.566047446293e+04 
       1.352538107878e-02       2.570876065306e+04 
       1.365457066831e-02       2.575621774305e+04 
       1.378379659403e-02       2.579985791180e+04 
       1.391305897145e-02       2.584116218468e+04 
       1.404235793912e-02       2.588066244335e+04 
       1.417169365822e-02       2.591657671366e+04 
       1.430106631228e-02       2.595277330945e+04 
       1.443047610683e-02       2.598438925080e+04 
       1.455992326918e-02       2.601516113859e+04 
       1.468940804816e-02       2.604393392502e+04 
       1.481893071391e-02       2.607190457523e+04 
       1.494849155772e-02       2.609527819186e+04 
       1.507809089188e-02       2.611942871317e+04 
       1.520772904954e-02       2.614006279328e+04 
       1.533740638462e-02       2.615756499739e+04 
       1.546712327173e-02       2.617605585155e+04 
       1.559688010613e-02       2.618992102076e+04 
       1.572667730368e-02       2.620399886899e+04 
       1.585651530086e-02       2.621441292805e+04 
       1.598639455474e-02       2.622518697566e+04 
       1.611631554307e-02       2.623201294882e+04 
       1.624627876429e-02       2.623782788715e+04 
       1.637628473761e-02       2.624321466013e+04 
       1.650633400310e-02       2.624554585043e+04 
       1.663642712183e-02       2.624657455599e+04 
       1.676656467596e-02       2.624573266757e+04 
       1.689674726889e-02       2.624236469575e+04 
       1.702697552547e-02       2.623828508789e+04 
       1.715725009210e-02       2.623231881007e+04 
       1.728757163702e-02       2.622602631468e+04 
       1.741794085044e-02       2.621710044917e+04 
       1.754835844483e-02       2.620662470980e+04 
       1.767882515516e-02       2.619497635814e+04 
       1.780934173914e-02       2.618072234991e+04 
       1.793990897753e-02       2.616613305052e+04 
       1.807052767442e-02       2.615030363552e+04 
       1.820119865756e-02       2.613297211193e+04 
       1.833192277867e-02       2.611301429032e+04 
       1.846270091382e-02       2.609227989009e+04 
       1.859353396377e-02       2.607127759058e+04 
       1.872442285437e-02       2.604818400070e+04 
       1.885536853696e-02       2.602354226794e+04 
       1.898637198875e-02       2.599729447820e+04 
       1.911743421330e-02       2.597037474970e+04 
       1.924855624096e-02       2.594194731751e+04 
       1.937973912934e-02       2.591271366179e+04 
       1.951098396376e-02       2.588219140910e+04 
       1.964229185781e-02       2.584953727551e+04 
       1.977366395386e-02       2.581615357690e+04 
       1.990510142359e-02       2.578198152351e+04 
       2.003660546853e-02       2.574685052113e+04 
       2.016817732072e-02       2.570973469842e+04 
       2.029981824323e-02       2.567194001959e+04 
       2.043152953083e-02       2.563331709095e+04 
       2.056331251061e-02       2.559330674989e+04 
       2.069516854266e-02       2.555296028529e+04 
       2.082709902078e-02       2.551041397015e+04 
       2.095910537312e-02       2.546751741867e+04 
       2.109118906299e-02       2.542348671470e+04 
       2.122335158956e-02       2.537859096950e+04 
       2.135559448869e-02       2.533264322003e+04 
       2.148791933368e-02       2.528579153388e+04 
       2.162032773616e-02       2.523804272658e+04 
       2.175282134690e-02       2.518928656354e+04 
       2.188540185670e-02       2.514037179968e+04 
       2.201807099735e-02       2.508979131109e+04 
       2.215083054250e-02       2.503855814805e+04 
       2.228368230868e-02       2.498591817961e+04 
       2.241662815630e-02       2.493296977989e+04 
       2.254966999064e-02       2.487915327624e+04 
       2.268280976295e-02       2.482467315118e+04 
       2.281604947156e-02       2.476928065868e+04 
       2.294939116295e-02       2.471351767516e+04 
       2.308283693300e-02       2.465632084269e+04 
       2.321638892812e-02       2.459876892600e+04 
       2.335004934654e-02       2.454098027342e+04 
       2.348382043956e-02       2.448149523009e+04 
       2.361770451289e-02       2.442189365121e+04 
       2.375170392801e-02       2.436153086449e+04 
       2.388582110357e-02       2.430049880955e+04 
       2.402005851684e-02       2.423886354353e+04 
       2.415441870522e-02       2.417659721596e+04 
       2.428890426778e-02       2.411410024893e+04 
       2.442351786683e-02       2.405062070014e+04 
       2.455826222961e-02       2.398655005398e+04 
       2.469314014996e-02       2.392203322127e+04 
       2.482815449009e-02       2.385673450549e+04 
       2.496330818237e-02       2.379081140211e+04 
       2.509860423125e-02       2.372476099932e+04 
       2.523404571514e-02       2.365786683139e+04 
       2.536963578844e-02       2.359058645732e+04 
       2.550537768361e-02       2.352284252086e+04 
       2.564127471328e-02       2.345496027609e+04 
       2.577733027249e-02       2.338599668246e+04 
       2.591354784094e-02       2.331707695033e+04 
       2.604993098539e-02       2.324760321106e+04 
       2.618648336204e-02       2.317730215669e+04 
       2.632320871914e-02       2.310707586698e+04 
       2.646011089952e-02       2.303609835069e+04 
       2.659719384335e-02       2.296498869976e+04 
       2.673446159095e-02       2.289338411549e+04 
       2.687191828562e-02       2.282167750537e+04 
       2.700956817672e-02       2.274931472202e+04 
       2.714741562275e-02       2.267674568432e+04 
       2.728546509457e-02       2.260390298460e+04 
       2.742372117876e-02       2.253036528620e+04 
       2.756218858106e-02       2.245689756483e+04 
       2.770087212999e-02       2.238293931325e+04 
       2.783977678056e-02       2.230869417368e+04 
       2.797890761812e-02       2.223431043420e+04 
       2.811826986241e-02       2.215953229629e+04 
       2.825786887172e-02       2.208456221045e+04 
       2.839771014717e-02       2.200940134411e+04 
       2.853779933724e-02       2.193391193203e+04 
       2.867814224243e-02       2.185802491377e+04 
       2.881874482010e-02       2.178219002226e+04 
       2.895961318953e-02       2.170605465446e+04 
       2.910075363712e-02       2.162963955778e+04 
       2.924217262188e-02       2.155318050104e+04 
       2.938387678109e-02       2.147649121745e+04 
       2.952587293618e-02       2.139932302625e+04 
       2.966816809891e-02       2.132226324870e+04 
       2.981076947775e-02       2.124500673300e+04 
       2.995368448455e-02       2.116779318268e+04 
       3.009692074150e-02       2.109003072058e+04 
       3.024048608833e-02       2.101240943081e+04 
       3.038438858992e-02       2.093456541904e+04 
       3.052863654416e-02       2.085675683768e+04 
       3.067323849014e-02       2.077854039683e+04 
       3.081820321679e-02       2.070039221475e+04 
       3.096353977180e-02       2.062233182022e+04 
       3.110925747103e-02       2.054381262977e+04 
       3.125536590827e-02       2.046536854603e+04 
       3.140187496547e-02       2.038683380134e+04 
       3.154879482347e-02       2.030836013309e+04 
       3.169613597323e-02       2.022965617910e+04 
       3.184390922748e-02       2.015094513111e+04 
       3.199212573309e-02       2.007196633629e+04 
       3.214079698390e-02       1.999324361868e+04 
       3.228993483421e-02       1.991430066191e+04 
       3.243955151295e-02       1.983533323832e+04 
       3.258965963851e-02       1.975639641871e+04 
       3.274027223434e-02       1.967742106516e+04 
       3.289140274528e-02       1.959836031466e+04 
       3.304306505478e-02       1.951934708393e+04 
       3.319527350299e-02       1.944035276962e+04 
       3.334804290570e-02       1.936125623366e+04 
       3.350138857440e-02       1.928208549570e+04 
       3.365532633733e-02       1.920309344209e+04 
       3.380987256160e-02       1.912384351217e+04 
       3.396504417662e-02       1.904474420814e+04 
       3.412085869872e-02       1.896579983347e+04 
       3.427733425716e-02       1.888675208177e+04 
       3.443448962154e-02       1.880752132927e+04 
       3.459234423086e-02       1.872847287916e+04 
       3.475091822408e-02       1.864957315008e+04 
       3.491023247260e-02       1.857042879089e+04 
       3.507030861447e-02       1.849140932793e+04 
       3.523116909080e-02       1.841250480361e+04 
       3.539283718412e-02       1.833357810593e+04 
       3.555533705924e-02       1.825463826745e+04 
       3.571869380652e-02       1.817577022990e+04 
       3.588293348778e-02       1.809702044920e+04 
       3.604808318515e-02       1.801812859508e+04 
       3.621417105294e-02       1.793930756996e+04 
       3.638122637289e-02       1.786059286991e+04 
       3.654927961296e-02       1.778190225190e+04 
       3.671836248999e-02       1.770326599209e+04 
       3.688850803653e-02       1.762462855322e+04 
       3.705975067216e-02       1.754612112858e+04 
       3.723212627969e-02       1.746749196814e+04 
       3.740567228663e-02       1.738911830197e+04 
       3.758042775232e-02       1.731067755171e+04 
       3.775643346137e-02       1.723206027158e+04 
       3.793373202366e-02       1.715365395144e+04 
       3.811236798179e-02       1.707539729894e+04 
       3.829238792641e-02       1.699692806983e+04 
       3.847384062025e-02       1.691866714432e+04 
       3.865677713156e-02       1.684036614361e+04 
       3.884125097791e-02       1.676208136315e+04 
       3.902731828129e-02       1.668377944432e+04 
       3.921503793554e-02       1.660557682621e+04 
       3.940447178732e-02       1.652734499655e+04 
       3.959568483201e-02       1.644927456588e+04 
       3.978874542589e-02       1.637093971336e+04 
       3.998372551640e-02       1.629272676072e+04 
       4.018070089219e-02       1.621467444350e+04 
       4.037975145511e-02       1.613627754411e+04 
       4.058096151645e-02       1.605804452278e+04 
       4.078442011999e-02       1.597977649105e+04 
       4.099022139490e-02       1.590149305322e+04 
       4.119846494171e-02       1.582331511906e+04 
       4.140925625513e-02       1.574483562041e+04 
       4.162270718802e-02       1.566646145662e+04 
       4.183893646131e-02       1.558800303941e+04 
       4.205807022535e-02       1.550944793489e+04 
       4.228024267900e-02       1.543085756139e+04 
       4.250559675358e-02       1.535233620285e+04 
       4.273428487000e-02       1.527332067273e+04 
       4.296646977836e-02       1.519448856608e+04 
       4.320232549103e-02       1.511534021724e+04 
       4.344203832172e-02       1.503613423759e+04 
       4.368580804502e-02       1.495669059206e+04 
       4.393384919340e-02       1.487718937629e+04 
       4.418639251125e-02       1.479769432212e+04 
       4.444368658893e-02       1.471784177279e+04 
       4.470599970380e-02       1.463749367351e+04 
       4.497362189967e-02       1.455720835072e+04 
       4.524686734222e-02       1.447660291690e+04 
       4.552607699424e-02       1.439548966232e+04 
       4.581162166324e-02       1.431452133142e+04 
       4.610390548373e-02       1.423263209946e+04 
       4.640336990899e-02       1.415065103115e+04 
       4.671049830182e-02       1.406808373775e+04 
       4.702582123245e-02       1.398529787678e+04 
       4.734992261452e-02       1.390216761561e+04 
       4.768344683796e-02       1.381811593511e+04 
       4.802710709325e-02       1.373316549167e+04 
       4.838169512478e-02       1.364817754328e+04 
       4.874809270659e-02       1.356213993081e+04 
       4.912728520299e-02       1.347554913545e+04 
       4.952037766415e-02       1.338827720554e+04 
       4.992861401832e-02       1.329937129820e+04 
       5.035340006369e-02       1.320989496095e+04 
       5.079633114342e-02       1.311929611049e+04 
       5.125922561734e-02       1.302759665475e+04 
       5.174416553652e-02       1.293388766196e+04 
       5.225354629795e-02       1.283917050826e+04 
       5.279013752269e-02       1.274241241065e+04 
       5.335715797646e-02       1.264361544048e+04 
       5.395836804355e-02       1.254226917898e+04 
       5.459818405149e-02       1.243787960690e+04 
       5.528181954906e-02       1.233148098105e+04 
       5.601545925693e-02       1.222026747693e+04 
       5.680647138097e-02       1.210513351753e+04 
       5.766366234149e-02       1.198494353966e+04 
       5.859757283179e-02       1.185765493690e+04 
       5.962080192585e-02       1.172274870368e+04 
       6.074832051519e-02       1.157720972960e+04 
       6.199768707271e-02       1.141926921998e+04 
