# Matter power spectrum P(k) at redshift z=0
# for k=1.04564e-05 to 0.628059 h/Mpc,
# number of wavenumbers equal to 560
#    1:k (h/Mpc)              2:P (Mpc/h)^3        
       1.045636895265e-05       5.098372185501e+01 
       2.335633999998e-05       1.106777392352e+02 
       3.630178600935e-05       1.693464538102e+02 
       4.932764091752e-05       2.276141325429e+02 
       6.246941795013e-05       2.858374043845e+02 
       7.576352721538e-05       3.442844575184e+02 
       8.924760347874e-05       4.031852188346e+02 
       1.029608484902e-04       4.627519469479e+02 
       1.169443922687e-04       5.231898011913e+02 
       1.312416777828e-04       5.847032539590e+02 
       1.458988734703e-04       6.475005486331e+02 
       1.609653179819e-04       7.117971881611e+02 
       1.764940013455e-04       7.778189141273e+02 
       1.925420863766e-04       8.458044400789e+02 
       2.091714734826e-04       9.160080661128e+02 
       2.264494109125e-04       9.887022800128e+02 
       2.444491508047e-04       1.064180358567e+03 
       2.632506488623e-04       1.142758990238e+03 
       2.829413018620e-04       1.224780915908e+03 
       3.036167121450e-04       1.310617502390e+03 
       3.253814613561e-04       1.400671217621e+03 
       3.483498665830e-04       1.495377847242e+03 
       3.726466803225e-04       1.595208283872e+03 
       3.984076811105e-04       1.700669688576e+03 
       4.257800842259e-04       1.812305659592e+03 
       4.549226821881e-04       1.930695128284e+03 
       4.860056042093e-04       2.056449442931e+03 
       5.192095649814e-04       2.190207217773e+03 
       5.547244604040e-04       2.332626380985e+03 
       5.927471671055e-04       2.484372943245e+03 
       6.334784214261e-04       2.646106139817e+03 
       6.771186999525e-04       2.818459792624e+03 
       7.238631041293e-04       3.002020096980e+03 
       7.738953674210e-04       3.197300601831e+03 
       8.273812477258e-04       3.404715686490e+03 
       8.844617212247e-04       3.624554313949e+03 
       9.452465258393e-04       3.856956565750e+03 
       1.009808675475e-03       4.101895357221e+03 
       1.078180546686e-03       4.359165671798e+03 
       1.150352011095e-03       4.628383205092e+03 
       1.226270861510e-03       4.908992714900e+03 
       1.305845498492e-03       5.200286010483e+03 
       1.388949566834e-03       5.501406264722e+03 
       1.475428017754e-03       5.811418489282e+03 
       1.565103961929e-03       6.129344458318e+03 
       1.657785680023e-03       6.454152888862e+03 
       1.753273251281e-03       6.784808019129e+03 
       1.851364409997e-03       7.120293486992e+03 
       1.951859404366e-03       7.459631585325e+03 
       2.054564780784e-03       7.801897708622e+03 
       2.159296130783e-03       8.146229302963e+03 
       2.265879912231e-03       8.491831727464e+03 
       2.374154494555e-03       8.837981301539e+03 
       2.483970588024e-03       9.184020998472e+03 
       2.595191208780e-03       9.529363793697e+03 
       2.707691312423e-03       9.873484283123e+03 
       2.821357205950e-03       1.021591662562e+04 
       2.936085824529e-03       1.055624883811e+04 
       3.051783938490e-03       1.089411979823e+04 
       3.168367338023e-03       1.122921236107e+04 
       3.285760028570e-03       1.156125022043e+04 
       3.403893458747e-03       1.188999506806e+04 
       3.522705794145e-03       1.221523768888e+04 
       3.642141244295e-03       1.253680072172e+04 
       3.762149445731e-03       1.285453433844e+04 
       3.882684901163e-03       1.316830394643e+04 
       4.003706472850e-03       1.347800428568e+04 
       4.125176927112e-03       1.378354414579e+04 
       4.247062526262e-03       1.408484572415e+04 
       4.369332663958e-03       1.438185255642e+04 
       4.491959539981e-03       1.467450913039e+04 
       4.614917870496e-03       1.496278407803e+04 
       4.738184630143e-03       1.524663930231e+04 
       4.861738822530e-03       1.552605637124e+04 
       4.985561275999e-03       1.580099067812e+04 
       5.109634461847e-03       1.607146976965e+04 
       5.233942332449e-03       1.633746458486e+04 
       5.358470177022e-03       1.659897888125e+04 
       5.483204492998e-03       1.685602718989e+04 
       5.608132871224e-03       1.710900573418e+04 
       5.733243893397e-03       1.735736342041e+04 
       5.858527040330e-03       1.760141669824e+04 
       5.983972609823e-03       1.784112071631e+04 
       6.109571643043e-03       1.807646779865e+04 
       6.235315858447e-03       1.830766603265e+04 
       6.361197592423e-03       1.853440410417e+04 
       6.487209745873e-03       1.875705357843e+04 
       6.613345736107e-03       1.897537689976e+04 
       6.739599453455e-03       1.918958970606e+04 
       6.865965222091e-03       1.939983482866e+04 
       6.992437764607e-03       1.960585721651e+04 
       7.119012169956e-03       1.980782910300e+04 
       7.245683864389e-03       2.000587245013e+04 
       7.372448585089e-03       2.020013400241e+04 
       7.499302356218e-03       2.038998163029e+04 
       7.626241467131e-03       2.057632046048e+04 
       7.753262452540e-03       2.075860701335e+04 
       7.880362074429e-03       2.093718637145e+04 
       8.007537305552e-03       2.111189507898e+04 
       8.134785314359e-03       2.128294054488e+04 
       8.262103451210e-03       2.145062944446e+04 
       8.389489235746e-03       2.161395222417e+04 
       8.516940345334e-03       2.177407224464e+04 
       8.644454604445e-03       2.193047913109e+04 
       8.772029974923e-03       2.208357924521e+04 
       8.899664547024e-03       2.223319296123e+04 
       9.027356531187e-03       2.237914875667e+04 
       9.155104250446e-03       2.252183690866e+04 
       9.282906133452e-03       2.266074511547e+04 
       9.410760708020e-03       2.279656074869e+04 
       9.538666595193e-03       2.292930060369e+04 
       9.666622503744e-03       2.305860610597e+04 
       9.794627225102e-03       2.318480835737e+04 
       9.922679628655e-03       2.330758884604e+04 
       1.005077865741e-02       2.342762185032e+04 
       1.017892332396e-02       2.354417668857e+04 
       1.030711270676e-02       2.365783061054e+04 
       1.043534594667e-02       2.376807859874e+04 
       1.056362224375e-02       2.387550877692e+04 
       1.069194085427e-02       2.398007673305e+04 
       1.082030108796e-02       2.408156301797e+04 
       1.094870230542e-02       2.418052947614e+04 
       1.107714391577e-02       2.427610666353e+04 
       1.120562537439e-02       2.436929102945e+04 
       1.133414618091e-02       2.445945369134e+04 
       1.146270587722e-02       2.454684797182e+04 
       1.159130404575e-02       2.463139483026e+04 
       1.171994030779e-02       2.471333115438e+04 
       1.184861432192e-02       2.479272339325e+04 
       1.197732578263e-02       2.486939973510e+04 
       1.210607441893e-02       2.494305802047e+04 
       1.223485999314e-02       2.501465295614e+04 
       1.236368229973e-02       2.508381604391e+04 
       1.249254116422e-02       2.515010555845e+04 
       1.262143644226e-02       2.521390782657e+04 
       1.275036801860e-02       2.527554401528e+04 
       1.287933580634e-02       2.533449524865e+04 
       1.300833974604e-02       2.539101169510e+04 
       1.313737980506e-02       2.544549319851e+04 
       1.326645597685e-02       2.549738601462e+04 
       1.339556828031e-02       2.554702235574e+04 
       1.352471675924e-02       2.559416852972e+04 
       1.365390148180e-02       2.563939731264e+04 
       1.378312254002e-02       2.568213147200e+04 
       1.391238004935e-02       2.572290158285e+04 
       1.404167414826e-02       2.576117029431e+04 
       1.417100499791e-02       2.579762544151e+04 
       1.430037278174e-02       2.583182460164e+04 
       1.442977770523e-02       2.586398438500e+04 
       1.455921999564e-02       2.589415945314e+04 
       1.468869990174e-02       2.592208805418e+04 
       1.481821769360e-02       2.594801355324e+04 
       1.494777366248e-02       2.597207531934e+04 
       1.507736812058e-02       2.599415355656e+04 
       1.520700140101e-02       2.601433461360e+04 
       1.533667385762e-02       2.603267672241e+04 
       1.546638586499e-02       2.604906258662e+04 
       1.559613781829e-02       2.606351265341e+04 
       1.572593013334e-02       2.607621574837e+04 
       1.585576324656e-02       2.608697468576e+04 
       1.598563761496e-02       2.609625639083e+04 
       1.611555371624e-02       2.610358818163e+04 
       1.624551204875e-02       2.610916894572e+04 
       1.637551313167e-02       2.611300625952e+04 
       1.650555750501e-02       2.611519134967e+04 
       1.663564572977e-02       2.611562012428e+04 
       1.676577838804e-02       2.611453533699e+04 
       1.689595608317e-02       2.611184235598e+04 
       1.702617943994e-02       2.610743202685e+04 
       1.715644910470e-02       2.610134086065e+04 
       1.728676574560e-02       2.609394013826e+04 
       1.741713005282e-02       2.608506782022e+04 
       1.754754273874e-02       2.607444754820e+04 
       1.767800453827e-02       2.606243489464e+04 
       1.780851620906e-02       2.604879127713e+04 
       1.793907853178e-02       2.603400337767e+04 
       1.806969231047e-02       2.601761680661e+04 
       1.820035837280e-02       2.599997863009e+04 
       1.833107757042e-02       2.598061467695e+04 
       1.846185077933e-02       2.596012064980e+04 
       1.859267890022e-02       2.593826896499e+04 
       1.872356285886e-02       2.591510370818e+04 
       1.885450360651e-02       2.589069736851e+04 
       1.898550212030e-02       2.586466884414e+04 
       1.911655940373e-02       2.583771956270e+04 
       1.924767648706e-02       2.580965541355e+04 
       1.937885442779e-02       2.578024840771e+04 
       1.951009431120e-02       2.574960989537e+04 
       1.964139725078e-02       2.571740313082e+04 
       1.977276438880e-02       2.568464588259e+04 
       1.990419689686e-02       2.565045190401e+04 
       2.003569597641e-02       2.561511755751e+04 
       2.016726285938e-02       2.557873452221e+04 
       2.029889880876e-02       2.554134793951e+04 
       2.043060511922e-02       2.550261797845e+04 
       2.056238311776e-02       2.546315816381e+04 
       2.069423416437e-02       2.542251800110e+04 
       2.082615965273e-02       2.538077422290e+04 
       2.095816101091e-02       2.533823296144e+04 
       2.109023970210e-02       2.529439684413e+04 
       2.122239722538e-02       2.524975195973e+04 
       2.135463511647e-02       2.520429370067e+04 
       2.148695494859e-02       2.515784217602e+04 
       2.161935833324e-02       2.511041934986e+04 
       2.175184692106e-02       2.506219125604e+04 
       2.188442240276e-02       2.501303355530e+04 
       2.201708650999e-02       2.496298002827e+04 
       2.214984101627e-02       2.491215001648e+04 
       2.228268773802e-02       2.486047490972e+04 
       2.241562853550e-02       2.480802146553e+04 
       2.254866531387e-02       2.475463756761e+04 
       2.268180002425e-02       2.470058149923e+04 
       2.281503466480e-02       2.464576344102e+04 
       2.294837128189e-02       2.459001966112e+04 
       2.308181197123e-02       2.453361781164e+04 
       2.321535887910e-02       2.447678075890e+04 
       2.334901420356e-02       2.441897578697e+04 
       2.348278019577e-02       2.436043616073e+04 
       2.361665916127e-02       2.430149159006e+04 
       2.375065346137e-02       2.424160235229e+04 
       2.388476551456e-02       2.418121324098e+04 
       2.401899779795e-02       2.412019203644e+04 
       2.415335284875e-02       2.405849917608e+04 
       2.428783326584e-02       2.399624175956e+04 
       2.442244171136e-02       2.393335900518e+04 
       2.455718091235e-02       2.386985245532e+04 
       2.469205366248e-02       2.380599696685e+04 
       2.482706282373e-02       2.374143217765e+04 
       2.496221132829e-02       2.367622720785e+04 
       2.509750218038e-02       2.361083184837e+04 
       2.523293845821e-02       2.354459418113e+04 
       2.536852331596e-02       2.347792238486e+04 
       2.550425998587e-02       2.341092335520e+04 
       2.564015178033e-02       2.334343324563e+04 
       2.577620209414e-02       2.327541715781e+04 
       2.591241440677e-02       2.320690418267e+04 
       2.604879228471e-02       2.313811615087e+04 
       2.618533938393e-02       2.306865340814e+04 
       2.632205945239e-02       2.299904845063e+04 
       2.645895633268e-02       2.292884824748e+04 
       2.659603396469e-02       2.285845853154e+04 
       2.673329638842e-02       2.278758919637e+04 
       2.687074774692e-02       2.271634666375e+04 
       2.700839228924e-02       2.264472829888e+04 
       2.714623437356e-02       2.257279553115e+04 
       2.728427847044e-02       2.250050426191e+04 
       2.742252916613e-02       2.242787078059e+04 
       2.756099116603e-02       2.235511522959e+04 
       2.769966929831e-02       2.228182823981e+04 
       2.783856851764e-02       2.220836732829e+04 
       2.797769390902e-02       2.213463374648e+04 
       2.811705069181e-02       2.206051437851e+04 
       2.825664422389e-02       2.198627413167e+04 
       2.839648000602e-02       2.191190840414e+04 
       2.853656368626e-02       2.183696375794e+04 
       2.867690106469e-02       2.176200612565e+04 
       2.881749809826e-02       2.168673173996e+04 
       2.895836090578e-02       2.161116363909e+04 
       2.909949577321e-02       2.153564111585e+04 
       2.924090915908e-02       2.145974940964e+04 
       2.938260770020e-02       2.138378878732e+04 
       2.952459821750e-02       2.130764670649e+04 
       2.966688772222e-02       2.123130825732e+04 
       2.980948342232e-02       2.115472899269e+04 
       2.995239272908e-02       2.107793211517e+04 
       3.009562326413e-02       2.100107938112e+04 
       3.023918286664e-02       2.092418924818e+04 
       3.038307960088e-02       2.084702725486e+04 
       3.052732176412e-02       2.076980005136e+04 
       3.067191789482e-02       2.069236449941e+04 
       3.081687678124e-02       2.061495639374e+04 
       3.096220747042e-02       2.053727888488e+04 
       3.110791927749e-02       2.045946971895e+04 
       3.125402179551e-02       2.038197576391e+04 
       3.140052490570e-02       2.030412593656e+04 
       3.154743878813e-02       2.022618831612e+04 
       3.169477393294e-02       2.014817582216e+04 
       3.184254115204e-02       2.006998623351e+04 
       3.199075159144e-02       1.999200285166e+04 
       3.213941674410e-02       1.991384368957e+04 
       3.228854846340e-02       1.983554119900e+04 
       3.243815897731e-02       1.975722317033e+04 
       3.258826090325e-02       1.967883720421e+04 
       3.273886726363e-02       1.960051322930e+04 
       3.288999150224e-02       1.952214335447e+04 
       3.304164750144e-02       1.944381814870e+04 
       3.319384960022e-02       1.936537086740e+04 
       3.334661261321e-02       1.928690596006e+04 
       3.349995185066e-02       1.920836850936e+04 
       3.365388313954e-02       1.912994786548e+04 
       3.380842284563e-02       1.905149985648e+04 
       3.396358789698e-02       1.897298628636e+04 
       3.411939580848e-02       1.889448623948e+04 
       3.427586470789e-02       1.881610102004e+04 
       3.443301336328e-02       1.873749901270e+04 
       3.459086121202e-02       1.865915189198e+04 
       3.474942839141e-02       1.858058083841e+04 
       3.490873577108e-02       1.850216555632e+04 
       3.506880498728e-02       1.842379000752e+04 
       3.522965847918e-02       1.834533504768e+04 
       3.539131952736e-02       1.826705207327e+04 
       3.555381229455e-02       1.818866262141e+04 
       3.571716186893e-02       1.811029669157e+04 
       3.588139431007e-02       1.803209170832e+04 
       3.604653669772e-02       1.795375234308e+04 
       3.621261718373e-02       1.787549754507e+04 
       3.637966504725e-02       1.779726223494e+04 
       3.654771075351e-02       1.771913058416e+04 
       3.671678601651e-02       1.764106379441e+04 
       3.688692386582e-02       1.756288925923e+04 
       3.705815871788e-02       1.748476874651e+04 
       3.723052645221e-02       1.740677523229e+04 
       3.740406449287e-02       1.732863256530e+04 
       3.757881189558e-02       1.725072108953e+04 
       3.775480944110e-02       1.717268864900e+04 
       3.793209973530e-02       1.709480892068e+04 
       3.811072731653e-02       1.701687976246e+04 
       3.829073877098e-02       1.693901327162e+04 
       3.847218285663e-02       1.686113806983e+04 
       3.865511063675e-02       1.678320875007e+04 
       3.883957562366e-02       1.670534334946e+04 
       3.902563393375e-02       1.662749068593e+04 
       3.921334445494e-02       1.654966379354e+04 
       3.940276902764e-02       1.647193626696e+04 
       3.959397264057e-02       1.639411461552e+04 
       3.978702364296e-02       1.631621792108e+04 
       3.998199397474e-02       1.623847812162e+04 
       4.017895941656e-02       1.616060322941e+04 
       4.037799986178e-02       1.608263187780e+04 
       4.057919961259e-02       1.600486220754e+04 
       4.078264770310e-02       1.592699011358e+04 
       4.098843825211e-02       1.584902672268e+04 
       4.119667084904e-02       1.577091977101e+04 
       4.140745097673e-02       1.569299333640e+04 
       4.162089047528e-02       1.561488520274e+04 
       4.183710805190e-02       1.553663156717e+04 
       4.205622984220e-02       1.545836220092e+04 
       4.227839002913e-02       1.538007800052e+04 
       4.250373152685e-02       1.530170199717e+04 
       4.273240673773e-02       1.522307421044e+04 
       4.296457839176e-02       1.514432018328e+04 
       4.320042047954e-02       1.506556397254e+04 
       4.344011929108e-02       1.498663234200e+04 
       4.368387457521e-02       1.490752033050e+04 
       4.393190083629e-02       1.482807729120e+04 
       4.418442878798e-02       1.474865515018e+04 
       4.444170698702e-02       1.466894457591e+04 
       4.470400367381e-02       1.458888536679e+04 
       4.497160885157e-02       1.450864421915e+04 
       4.524483664119e-02       1.442812061320e+04 
       4.552402795597e-02       1.434725173484e+04 
       4.580955354856e-02       1.426610737612e+04 
       4.610181749255e-02       1.418464682140e+04 
       4.640126117330e-02       1.410253031686e+04 
       4.670836787773e-02       1.402021065673e+04 
       4.702366809102e-02       1.393733368708e+04 
       4.734774563112e-02       1.385390489351e+04 
       4.768124478005e-02       1.376994287335e+04 
       4.802487860605e-02       1.368538773727e+04 
       4.837943871456e-02       1.360015301306e+04 
       4.874580672114e-02       1.351417788450e+04 
       4.912496780848e-02       1.342742115209e+04 
       4.951802681782e-02       1.333977837422e+04 
       4.992622743599e-02       1.325106821852e+04 
       5.035097518088e-02       1.316143204423e+04 
       5.079386506869e-02       1.307054322973e+04 
       5.125671507599e-02       1.297831051849e+04 
       5.174160680228e-02       1.288460064989e+04 
       5.225093510976e-02       1.278923987262e+04 
       5.278746898289e-02       1.269217100329e+04 
       5.335442642572e-02       1.259284655385e+04 
       5.395556690681e-02       1.249125831941e+04 
       5.459530564804e-02       1.238676271229e+04 
       5.527885485846e-02       1.227917712361e+04 
       5.601239763205e-02       1.216776294146e+04 
       5.680330019976e-02       1.205185770374e+04 
       5.766036659301e-02       1.193067028920e+04 
       5.859413464212e-02       1.180283082038e+04 
       5.961720005316e-02       1.166691698469e+04 
       6.074452989018e-02       1.152067723625e+04 
       6.199367854687e-02       1.136182571433e+04 
