# Matter power spectrum P(k) at redshift z=0
# for k=1.04578e-05 to 0.628483 h/Mpc,
# number of wavenumbers equal to 560
#    1:k (h/Mpc)              2:P (Mpc/h)^3        
       1.045775606499e-05       5.096895385556e+01 
       2.336509970312e-05       1.106715947734e+02 
       3.631798390675e-05       1.693486347006e+02 
       4.935140270774e-05       2.276247962976e+02 
       6.250093097222e-05       2.858569926753e+02 
       7.580304290783e-05       3.443136189257e+02 
       8.929544079107e-05       4.032248198469e+02 
       1.030173983034e-04       4.628030814918e+02 
       1.170101228988e-04       5.232537987566e+02 
       1.313171416577e-04       5.847816941389e+02 
       1.459847150905e-04       6.475952859450e+02 
       1.610622832885e-04       7.119103780735e+02 
       1.766029486368e-04       7.779530440701e+02 
       1.926639989256e-04       8.459623623814e+02 
       2.093074740141e-04       9.161930438603e+02 
       2.266007780993e-04       9.889180322785e+02 
       2.446173379261e-04       1.064431110739e+03 
       2.634373047392e-04       1.143049534207e+03 
       2.831482941231e-04       1.225116668704e+03 
       3.038461527864e-04       1.311004580715e+03 
       3.256357344123e-04       1.401116500739e+03 
       3.486316575219e-04       1.495889057685e+03 
       3.729590064930e-04       1.595794044877e+03 
       3.987539221868e-04       1.701339597531e+03 
       4.261640111088e-04       1.813070336797e+03 
       4.553484822280e-04       1.931566252017e+03 
       4.864778999351e-04       2.057439750180e+03 
       5.197334228058e-04       2.191330478616e+03 
       5.553053851192e-04       2.333897304502e+03 
       5.933910775508e-04       2.485807048586e+03 
       6.341916026969e-04       2.647719544254e+03 
       6.779077281883e-04       2.820268916513e+03 
       7.247347414988e-04       3.004041340701e+03 
       7.748564275501e-04       3.199549936614e+03 
       8.284384354173e-04       3.407208221961e+03 
       8.856214545119e-04       3.627303920611e+03 
       9.465147524631e-04       3.859975514879e+03 
       1.011190698822e-03       4.105194109544e+03 
       1.079680877111e-03       4.362752834784e+03 
       1.151974256773e-03       4.632265590867e+03 
       1.228017668643e-03       4.913175772215e+03 
       1.307718544524e-03       5.204774203785e+03 
       1.390949603797e-03       5.506203026925e+03 
       1.477554957220e-03       5.816528878053e+03 
       1.567356989464e-03       6.134773477419e+03 
       1.660163385815e-03       6.459906712705e+03 
       1.755773764574e-03       6.790894043358e+03 
       1.853985527351e-03       7.126720492800e+03 
       1.954598704852e-03       7.466409561387e+03 
       2.057419724217e-03       7.809037853593e+03 
       2.162264137682e-03       8.153743715958e+03 
       2.268958426010e-03       8.499733697680e+03 
       2.377341027670e-03       8.846284205575e+03 
       2.487262754371e-03       9.192740537792e+03 
       2.598586744821e-03       9.538515359849e+03 
       2.711188089417e-03       9.883084659543e+03 
       2.824953235404e-03       1.022598435672e+04 
       2.939779258656e-03       1.056680438556e+04 
       3.055573067137e-03       1.090518398002e+04 
       3.172250583206e-03       1.124080902355e+04 
       3.289735937511e-03       1.157340450465e+04 
       3.407960696051e-03       1.190273396825e+04 
       3.526863133613e-03       1.222858848459e+04 
       3.646387560693e-03       1.255079208787e+04 
       3.766483706761e-03       1.286919264656e+04 
       3.887106159775e-03       1.318366176147e+04 
       4.008213859994e-03       1.349408906511e+04 
       4.129769644970e-03       1.380038304686e+04 
       4.251739841987e-03       1.410246687738e+04 
       4.374093903922e-03       1.440027956446e+04 
       4.496804084496e-03       1.469377019582e+04 
       4.619845149012e-03       1.498290555150e+04 
       4.743194116873e-03       1.526764045083e+04 
       4.866830032479e-03       1.554795302042e+04 
       4.990733761364e-03       1.582386927294e+04 
       5.114887808759e-03       1.609534447188e+04 
       5.239276158020e-03       1.636240953190e+04 
       5.363884126675e-03       1.662511401871e+04 
       5.488698238051e-03       1.688336855193e+04 
       5.613706106703e-03       1.713665908224e+04 
       5.738896336054e-03       1.738618420411e+04 
       5.864258426853e-03       1.763131614423e+04 
       5.989782695208e-03       1.787209957962e+04 
       6.115460199119e-03       1.810856942807e+04 
       6.241282672543e-03       1.834070887369e+04 
       6.367242466146e-03       1.856865999457e+04 
       6.493332494008e-03       1.879217183059e+04 
       6.619546185610e-03       1.901168799246e+04 
       6.745877442539e-03       1.922710016969e+04 
       6.872320599389e-03       1.943862444177e+04 
       6.998870388413e-03       1.964585972218e+04 
       7.125521907528e-03       1.984919732203e+04 
       7.252270591313e-03       2.004846297896e+04 
       7.379112184699e-03       2.024370952224e+04 
       7.506042719063e-03       2.043533096433e+04 
       7.633058490485e-03       2.062269491974e+04 
       7.760156039954e-03       2.080631807320e+04 
       7.887332135321e-03       2.098607963347e+04 
       8.014583754827e-03       2.116203246158e+04 
       8.141908072063e-03       2.133425155391e+04 
       8.269302442204e-03       2.150360022050e+04 
       8.396764389419e-03       2.166745219001e+04 
       8.524291595321e-03       2.182986825793e+04 
       8.651881888385e-03       2.198763880561e+04 
       8.779533234217e-03       2.214182973961e+04 
       8.907243726627e-03       2.229255283880e+04 
       9.035011579407e-03       2.243911764005e+04 
       9.162835118759e-03       2.258253268631e+04 
       9.290712776332e-03       2.272401495287e+04 
       9.418643082781e-03       2.286015002546e+04 
       9.546624661844e-03       2.299492311087e+04 
       9.674656224848e-03       2.312540892397e+04 
       9.802736565655e-03       2.325279662131e+04 
       9.930864555966e-03       2.337674221612e+04 
       1.005903914099e-02       2.349667520882e+04 
       1.018725933543e-02       2.361539761092e+04 
       1.031552421974e-02       2.373017554993e+04 
       1.044383293671e-02       2.384172442422e+04 
       1.057218468823e-02       2.395024150851e+04 
       1.070057873233e-02       2.405596384161e+04 
       1.082901438044e-02       2.415870003451e+04 
       1.095749099479e-02       2.425829705253e+04 
       1.108600798605e-02       2.435420020990e+04 
       1.121456481113e-02       2.444909922853e+04 
       1.134316097108e-02       2.453941614589e+04 
       1.147179600923e-02       2.462829751717e+04 
       1.160046950934e-02       2.471437223438e+04 
       1.172918109403e-02       2.479727019908e+04 
       1.185793042316e-02       2.487752979223e+04 
       1.198671719245e-02       2.495402110963e+04 
       1.211554113211e-02       2.502934817286e+04 
       1.224440200563e-02       2.510230935608e+04 
       1.237329960863e-02       2.517196340049e+04 
       1.250223376776e-02       2.523840829921e+04 
       1.263120433973e-02       2.530372091916e+04 
       1.276021121038e-02       2.536504144938e+04 
       1.288925429384e-02       2.542577492345e+04 
       1.301833353171e-02       2.548322897085e+04 
       1.314744889235e-02       2.553829317688e+04 
       1.327660037019e-02       2.559080970702e+04 
       1.340578798512e-02       2.564103830057e+04 
       1.353501178191e-02       2.568896519961e+04 
       1.366427182965e-02       2.573470514396e+04 
       1.379356822131e-02       2.577681960914e+04 
       1.392290107328e-02       2.581938792881e+04 
       1.405227052496e-02       2.585836766043e+04 
       1.418167673841e-02       2.589461402003e+04 
       1.431111989797e-02       2.592932720922e+04 
       1.444060021005e-02       2.596177275072e+04 
       1.457011790278e-02       2.599240758656e+04 
       1.469967322583e-02       2.602162846312e+04 
       1.482926645018e-02       2.604793894502e+04 
       1.495889786796e-02       2.607183989738e+04 
       1.508856779228e-02       2.609358064897e+04 
       1.521827655712e-02       2.611429678546e+04 
       1.534802451724e-02       2.613395142621e+04 
       1.547781204809e-02       2.614975121587e+04 
       1.560763954576e-02       2.616441867803e+04 
       1.573750742696e-02       2.617736096444e+04 
       1.586741612901e-02       2.618957114505e+04 
       1.599736610984e-02       2.619767808476e+04 
       1.612735784805e-02       2.620523858320e+04 
       1.625739184293e-02       2.621094805647e+04 
       1.638746861456e-02       2.621496926321e+04 
       1.651758870390e-02       2.621730559108e+04 
       1.664775267289e-02       2.621900501189e+04 
       1.677796110458e-02       2.621722918851e+04 
       1.690821460328e-02       2.621391558184e+04 
       1.703851379474e-02       2.620980077244e+04 
       1.716885932629e-02       2.620389997122e+04 
       1.729925186708e-02       2.619633356939e+04 
       1.742969210828e-02       2.618846926689e+04 
       1.756018076332e-02       2.617668903064e+04 
       1.769071856812e-02       2.616564296464e+04 
       1.782130628137e-02       2.615088598974e+04 
       1.795194468484e-02       2.613605813943e+04 
       1.808263458362e-02       2.611957681688e+04 
       1.821337680647e-02       2.610145914020e+04 
       1.834417220617e-02       2.608229452404e+04 
       1.847502165984e-02       2.606168791782e+04 
       1.860592606931e-02       2.604040651776e+04 
       1.873688636153e-02       2.601605199564e+04 
       1.886790348892e-02       2.599245205121e+04 
       1.899897842985e-02       2.596563684573e+04 
       1.913011218901e-02       2.593817907425e+04 
       1.926130579793e-02       2.590968503113e+04 
       1.939256031539e-02       2.587992272317e+04 
       1.952387682794e-02       2.584904832568e+04 
       1.965525645039e-02       2.581686163618e+04 
       1.978670032637e-02       2.578336775579e+04 
       1.991820962883e-02       2.574927983653e+04 
       2.004978556062e-02       2.571356298647e+04 
       2.018142935510e-02       2.567649884972e+04 
       2.031314227669e-02       2.563849547498e+04 
       2.044492562155e-02       2.559958087014e+04 
       2.057678071818e-02       2.555955770083e+04 
       2.070870892811e-02       2.551838321668e+04 
       2.084071164660e-02       2.547625140540e+04 
       2.097279030330e-02       2.543380902818e+04 
       2.110494636305e-02       2.538899731511e+04 
       2.123718132660e-02       2.534390928452e+04 
       2.136949673137e-02       2.529761637332e+04 
       2.150189415231e-02       2.525101377539e+04 
       2.163437520271e-02       2.520278872585e+04 
       2.176694153503e-02       2.515441694435e+04 
       2.189959484182e-02       2.510440193261e+04 
       2.203233685663e-02       2.505406319047e+04 
       2.216516935494e-02       2.500240223448e+04 
       2.229809415512e-02       2.495000223937e+04 
       2.243111311948e-02       2.489683631995e+04 
       2.256422815523e-02       2.484322709733e+04 
       2.269744121562e-02       2.478846240537e+04 
       2.283075430098e-02       2.473278018869e+04 
       2.296416945989e-02       2.467647653968e+04 
       2.309768879033e-02       2.461951341260e+04 
       2.323131444089e-02       2.456180827990e+04 
       2.336504861201e-02       2.450340600063e+04 
       2.349889355728e-02       2.444427093823e+04 
       2.363285158472e-02       2.438450826020e+04 
       2.376692505820e-02       2.432430782614e+04 
       2.390111639881e-02       2.426322429073e+04 
       2.403542808631e-02       2.420109398407e+04 
       2.416986266066e-02       2.413902007423e+04 
       2.430442272354e-02       2.407580530481e+04 
       2.443911093995e-02       2.401221079643e+04 
       2.457393003988e-02       2.394843343239e+04 
       2.470888281999e-02       2.388334847016e+04 
       2.484397214535e-02       2.381806789542e+04 
       2.497920095132e-02       2.375264109155e+04 
       2.511457224535e-02       2.368593574410e+04 
       2.525008910898e-02       2.361913767918e+04 
       2.538575469978e-02       2.355170904089e+04 
       2.552157225349e-02       2.348390232034e+04 
       2.565754508608e-02       2.341564101109e+04 
       2.579367659603e-02       2.334718134809e+04 
       2.592997026657e-02       2.327767407741e+04 
       2.606642966805e-02       2.320821884939e+04 
       2.620305846042e-02       2.313797485017e+04 
       2.633986039571e-02       2.306776945182e+04 
       2.647683932067e-02       2.299683025257e+04 
       2.661399917949e-02       2.292528034139e+04 
       2.675134401658e-02       2.285379026404e+04 
       2.688887797949e-02       2.278162386807e+04 
       2.702660532194e-02       2.270931739709e+04 
       2.716453040687e-02       2.263660137068e+04 
       2.730265770973e-02       2.256353159060e+04 
       2.744099182182e-02       2.249050017851e+04 
       2.757953745370e-02       2.241678252295e+04 
       2.771829943889e-02       2.234280444390e+04 
       2.785728273749e-02       2.226834052104e+04 
       2.799649244013e-02       2.219393885440e+04 
       2.813593377196e-02       2.211907105713e+04 
       2.827561209681e-02       2.204401507078e+04 
       2.841553292154e-02       2.196875533729e+04 
       2.855570190052e-02       2.189316066817e+04 
       2.869612484030e-02       2.181727803013e+04 
       2.883680770448e-02       2.174131264263e+04 
       2.897775661875e-02       2.166526808574e+04 
       2.911897787614e-02       2.158859382458e+04 
       2.926047794246e-02       2.151198563747e+04 
       2.940226346199e-02       2.143528426251e+04 
       2.954434126341e-02       2.135860087290e+04 
       2.968671836592e-02       2.128133459013e+04 
       2.982940198566e-02       2.120410324977e+04 
       2.997239954240e-02       2.112652413510e+04 
       3.011571866647e-02       2.104880049728e+04 
       3.025936720605e-02       2.097114113480e+04 
       3.040335323468e-02       2.089331303256e+04 
       3.054768505922e-02       2.081550724897e+04 
       3.069237122801e-02       2.073717864641e+04 
       3.083742053953e-02       2.065918354583e+04 
       3.098284205134e-02       2.058082520914e+04 
       3.112864508947e-02       2.050235149255e+04 
       3.127483925825e-02       2.042388783443e+04 
       3.142143445050e-02       2.034544221711e+04 
       3.156844085833e-02       2.026670335431e+04 
       3.171586898430e-02       2.018794660920e+04 
       3.186372965319e-02       2.010918629153e+04 
       3.201203402431e-02       2.003035011812e+04 
       3.216079360439e-02       1.995174294652e+04 
       3.231002026107e-02       1.987265866836e+04 
       3.245972623709e-02       1.979358483522e+04 
       3.260992416515e-02       1.971457366186e+04 
       3.276062708354e-02       1.963558602009e+04 
       3.291184845247e-02       1.955664041109e+04 
       3.306360217136e-02       1.947749055348e+04 
       3.321590259686e-02       1.939857887356e+04 
       3.336876456195e-02       1.931944611899e+04 
       3.352220339596e-02       1.924030859567e+04 
       3.367623494561e-02       1.916121897857e+04 
       3.383087559725e-02       1.908224743381e+04 
       3.398614230028e-02       1.900300336906e+04 
       3.414205259182e-02       1.892386352755e+04 
       3.429862462274e-02       1.884497687072e+04 
       3.445587718513e-02       1.876581822284e+04 
       3.461382974142e-02       1.868670635483e+04 
       3.477250245496e-02       1.860774656126e+04 
       3.493191622256e-02       1.852883523373e+04 
       3.509209270881e-02       1.844968435071e+04 
       3.525305438240e-02       1.837072995601e+04 
       3.541482455475e-02       1.829193343460e+04 
       3.557742742078e-02       1.821292792181e+04 
       3.574088810229e-02       1.813421023163e+04 
       3.590523269398e-02       1.805526464682e+04 
       3.607048831237e-02       1.797650315223e+04 
       3.623668314773e-02       1.789772245708e+04 
       3.640384651947e-02       1.781898916188e+04 
       3.657200893498e-02       1.774038788517e+04 
       3.674120215247e-02       1.766170685497e+04 
       3.691145924782e-02       1.758324846494e+04 
       3.708281468613e-02       1.750455021729e+04 
       3.725530439800e-02       1.742605099887e+04 
       3.742896586113e-02       1.734756120307e+04 
       3.760383818770e-02       1.726910094209e+04 
       3.777996221785e-02       1.719073555600e+04 
       3.795738061999e-02       1.711230675392e+04 
       3.813613799837e-02       1.703404518672e+04 
       3.831628100868e-02       1.695563845298e+04 
       3.849785848228e-02       1.687741192174e+04 
       3.868092155991e-02       1.679909265980e+04 
       3.886552383583e-02       1.672096977153e+04 
       3.905172151313e-02       1.664263750874e+04 
       3.923957357155e-02       1.656442846910e+04 
       3.942914194883e-02       1.648627513347e+04 
       3.962049173695e-02       1.640805580841e+04 
       3.981369139484e-02       1.632989464417e+04 
       4.000881297905e-02       1.625186967239e+04 
       4.020593239435e-02       1.617359145826e+04 
       4.040512966632e-02       1.609544075734e+04 
       4.060648923820e-02       1.601742320492e+04 
       4.081010029472e-02       1.593902825133e+04 
       4.101605711568e-02       1.586091347427e+04 
       4.122445946289e-02       1.578259366933e+04 
       4.143541300388e-02       1.570442288675e+04 
       4.164902977703e-02       1.562606299312e+04 
       4.186542870259e-02       1.554761348816e+04 
       4.208473614545e-02       1.546908779961e+04 
       4.230708653566e-02       1.539050544569e+04 
       4.253262305412e-02       1.531185881326e+04 
       4.276149839152e-02       1.523311836810e+04 
       4.299387559012e-02       1.515423989784e+04 
       4.322992897921e-02       1.507527073963e+04 
       4.346984521684e-02       1.499632445382e+04 
       4.371382445249e-02       1.491693689594e+04 
       4.396208162752e-02       1.483745114351e+04 
       4.421484793319e-02       1.475782199542e+04 
       4.447237244926e-02       1.467797097913e+04 
       4.473492399023e-02       1.459792355345e+04 
       4.500279319077e-02       1.451760869261e+04 
       4.527629486808e-02       1.443701931774e+04 
       4.555577070506e-02       1.435619548703e+04 
       4.584159230727e-02       1.427505991350e+04 
       4.613416469598e-02       1.419347598871e+04 
       4.643393031258e-02       1.411175522393e+04 
       4.674137362417e-02       1.402907954859e+04 
       4.705702643895e-02       1.394637607802e+04 
       4.738147406281e-02       1.386305464923e+04 
       4.771536245683e-02       1.377947823073e+04 
       4.805940659068e-02       1.369503833081e+04 
       4.841440023112e-02       1.360961895251e+04 
       4.878122745988e-02       1.352414084252e+04 
       4.916087628518e-02       1.343735525171e+04 
       4.955445479923e-02       1.335017175874e+04 
       4.996321044589e-02       1.326155659123e+04 
       5.038855310500e-02       1.317220473628e+04 
       5.083208288130e-02       1.308192765665e+04 
       5.129562371674e-02       1.299011608221e+04 
       5.178126423982e-02       1.289692746006e+04 
       5.229140763762e-02       1.280205203296e+04 
       5.282883280527e-02       1.270486311132e+04 
       5.339676960539e-02       1.260678665396e+04 
       5.399899176420e-02       1.250579573528e+04 
       5.463993172010e-02       1.240205990031e+04 
       5.532482254379e-02       1.229514411607e+04 
       5.605987266035e-02       1.218452349422e+04 
       5.685247905426e-02       1.206947070904e+04 
       5.771148295565e-02       1.194907136703e+04 
       5.864746676943e-02       1.182219462663e+04 
       5.967307862470e-02       1.168730075216e+04 
       6.080334513423e-02       1.154220737644e+04 
       6.205588409887e-02       1.138399212749e+04 
