# Matter power spectrum P(k) at redshift z=0
# for k=1.04316e-05 to 0.626618 h/Mpc,
# number of wavenumbers equal to 560
#    1:k (h/Mpc)              2:P (Mpc/h)^3        
       1.043156132665e-05       5.133367183987e+01 
       2.330652249516e-05       1.114632778718e+02 
       3.622668291288e-05       1.705589097596e+02 
       4.922677287187e-05       2.292490065540e+02 
       6.234209625802e-05       2.878922448073e+02 
       7.560884505426e-05       3.467581340663e+02 
       8.906442388706e-05       4.060776245823e+02 
       1.027477889291e-04       4.660638021975e+02 
       1.166998055042e-04       5.269225419702e+02 
       1.309636287742e-04       5.888589500291e+02 
       1.455851118935e-04       6.520818426990e+02 
       1.606132459585e-04       7.168072388145e+02 
       1.761006359005e-04       7.832613492594e+02 
       1.921040161068e-04       8.516833073780e+02 
       2.086848088944e-04       9.223277870830e+02 
       2.259097278950e-04       9.954675977818e+02 
       2.438514267501e-04       1.071396280258e+03 
       2.625891910556e-04       1.150430731393e+03 
       2.822096679627e-04       1.232913832136e+03 
       3.028076229032e-04       1.319217029805e+03 
       3.244867061943e-04       1.409742809791e+03 
       3.473602033775e-04       1.504926913037e+03 
       3.715517316950e-04       1.605240149146e+03 
       3.971958308330e-04       1.711189577358e+03 
       4.244383790048e-04       1.823318723563e+03 
       4.534367461083e-04       1.942206529688e+03 
       4.843595754345e-04       2.068464537918e+03 
       5.173860667387e-04       2.202731850042e+03 
       5.527046205016e-04       2.345667332735e+03 
       5.905107017232e-04       2.497938583882e+03 
       6.310037989614e-04       2.660207277624e+03 
       6.743833984580e-04       2.833110756838e+03 
       7.208439705323e-04       3.017240075009e+03 
       7.705690778044e-04       3.213115116920e+03 
       8.237248557034e-04       3.421158179515e+03 
       8.804532671601e-04       3.641667735023e+03 
       9.408656657810e-04       3.874794734036e+03 
       1.005037278510e-03       4.120523948341e+03 
       1.073003206201e-03       4.378662753791e+03 
       1.144756421237e-03       4.648838970156e+03 
       1.220248024846e-03       4.930508697515e+03 
       1.299389751686e-03       5.222973500049e+03 
       1.382058433763e-03       5.525385973439e+03 
       1.468101918838e-03       5.836812924364e+03 
       1.557345821047e-03       6.156280325970e+03 
       1.649600474775e-03       6.482756706786e+03 
       1.744667549302e-03       6.815203654278e+03 
       1.842345925892e-03       7.152599970561e+03 
       1.942436601323e-03       7.493961361522e+03 
       2.044746530487e-03       7.838355184798e+03 
       2.149091436437e-03       8.184910083107e+03 
       2.255297692995e-03       8.532822286956e+03 
       2.363203425588e-03       8.881357846408e+03 
       2.472658988220e-03       9.229852638443e+03 
       2.583526967618e-03       9.577709711297e+03 
       2.695681847733e-03       9.924396761205e+03 
       2.809009445235e-03       1.026944076646e+04 
       2.923406203630e-03       1.061242289018e+04 
       3.038778412543e-03       1.095297772536e+04 
       3.155041400685e-03       1.129078395844e+04 
       3.272118736492e-03       1.162555982311e+04 
       3.389941458967e-03       1.195706704832e+04 
       3.508447352779e-03       1.228508828185e+04 
       3.627580275320e-03       1.260944619404e+04 
       3.747289539077e-03       1.292998583056e+04 
       3.867529349587e-03       1.324657263068e+04 
       3.988258297271e-03       1.355909641850e+04 
       4.109438900248e-03       1.386746157662e+04 
       4.231037194491e-03       1.417159237113e+04 
       4.353022367427e-03       1.447142378836e+04 
       4.475366431002e-03       1.476690473542e+04 
       4.598043930328e-03       1.505799726438e+04 
       4.721031684247e-03       1.534466367162e+04 
       4.844308554422e-03       1.562686487083e+04 
       4.967855239801e-03       1.590463236785e+04 
       5.091654093653e-03       1.617791697769e+04 
       5.215688960614e-03       1.644682179604e+04 
       5.339945031469e-03       1.671084743796e+04 
       5.464408713635e-03       1.697065560782e+04 
       5.589067515568e-03       1.722618738561e+04 
       5.713909943465e-03       1.747736395320e+04 
       5.838925408889e-03       1.772410866321e+04 
       5.964104146046e-03       1.796648406294e+04 
       6.089437137641e-03       1.820430018263e+04 
       6.214916048329e-03       1.843817095637e+04 
       6.340533164920e-03       1.866764114366e+04 
       6.466281342584e-03       1.889280407876e+04 
       6.592153956394e-03       1.911351071490e+04 
       6.718144857631e-03       1.933031424138e+04 
       6.844248334316e-03       1.954294230101e+04 
       6.970459075540e-03       1.975184404437e+04 
       7.096772139170e-03       1.995632464667e+04 
       7.223182922581e-03       2.015670694574e+04 
       7.349687136103e-03       2.035292581178e+04 
       7.476280778895e-03       2.054583310041e+04 
       7.602960117006e-03       2.073466644716e+04 
       7.729721663399e-03       2.091962963626e+04 
       7.856562159738e-03       2.110031081347e+04 
       7.983478559772e-03       2.127730210295e+04 
       8.110468014156e-03       2.145055868120e+04 
       8.237527856564e-03       2.162018294579e+04 
       8.364655590984e-03       2.178687327887e+04 
       8.491848880067e-03       2.194912508174e+04 
       8.619105534451e-03       2.210783723458e+04 
       8.746423502945e-03       2.226295700677e+04 
       8.873800863522e-03       2.241461088755e+04 
       9.001235815023e-03       2.256264339821e+04 
       9.128726669529e-03       2.270645903309e+04 
       9.256271845323e-03       2.284751761846e+04 
       9.383869860405e-03       2.298593441962e+04 
       9.511519326508e-03       2.312090889286e+04 
       9.639218943571e-03       2.325202404181e+04 
       9.766967494624e-03       2.337972802242e+04 
       9.894763841065e-03       2.350460156769e+04 
       1.002260691829e-02       2.362551230840e+04 
       1.015049573163e-02       2.374458015207e+04 
       1.027842935261e-02       2.385987123319e+04 
       1.040640691546e-02       2.397133155779e+04 
       1.053442761390e-02       2.408067950125e+04 
       1.066249069811e-02       2.418754220088e+04 
       1.079059547198e-02       2.428973726744e+04 
       1.091874129052e-02       2.439086014755e+04 
       1.104692755745e-02       2.448814798533e+04 
       1.117515372296e-02       2.458160902590e+04 
       1.130341928164e-02       2.467353066184e+04 
       1.143172377058e-02       2.476287648721e+04 
       1.156006676751e-02       2.484844754551e+04 
       1.168844788918e-02       2.493226885098e+04 
       1.181686678981e-02       2.501213955391e+04 
       1.194532315960e-02       2.508990924084e+04 
       1.207381672342e-02       2.516570394519e+04 
       1.220234723955e-02       2.523773185635e+04 
       1.233091449854e-02       2.530844873436e+04 
       1.245951832208e-02       2.537597980559e+04 
       1.258815856204e-02       2.543947867214e+04 
       1.271683509955e-02       2.550332749852e+04 
       1.284554784407e-02       2.556328579689e+04 
       1.297429673266e-02       2.562087850602e+04 
       1.310308172922e-02       2.567599847416e+04 
       1.323190282378e-02       2.572747480396e+04 
       1.336076003190e-02       2.577917939101e+04 
       1.348965339407e-02       2.582726148979e+04 
       1.361858297519e-02       2.587309966382e+04 
       1.374754886405e-02       2.591662898659e+04 
       1.387655117292e-02       2.595661043476e+04 
       1.400559003712e-02       2.599694925951e+04 
       1.413466561465e-02       2.603394624309e+04 
       1.426377808586e-02       2.606861370306e+04 
       1.439292765313e-02       2.609997611985e+04 
       1.452211454062e-02       2.613180933231e+04 
       1.465133899404e-02       2.616044031591e+04 
       1.478060128042e-02       2.618596231410e+04 
       1.490990168793e-02       2.621120396766e+04 
       1.503924052576e-02       2.623356692066e+04 
       1.516861812394e-02       2.625324775518e+04 
       1.529803483328e-02       2.627123223601e+04 
       1.542749102527e-02       2.628781126006e+04 
       1.555698709204e-02       2.630368892856e+04 
       1.568652344632e-02       2.631587037900e+04 
       1.581610052143e-02       2.632681537693e+04 
       1.594571877127e-02       2.633552301192e+04 
       1.607537867041e-02       2.634370743566e+04 
       1.620508071405e-02       2.634937007781e+04 
       1.633482541820e-02       2.635222466343e+04 
       1.646461331965e-02       2.635402875496e+04 
       1.659444497618e-02       2.635604121516e+04 
       1.672432096664e-02       2.635351872377e+04 
       1.685424189107e-02       2.635182098594e+04 
       1.698420837091e-02       2.634615398192e+04 
       1.711422104917e-02       2.634003613591e+04 
       1.724428059058e-02       2.633244261304e+04 
       1.737438768187e-02       2.632381019168e+04 
       1.750454303196e-02       2.631269633611e+04 
       1.763474737219e-02       2.630060835262e+04 
       1.776500145663e-02       2.628620370611e+04 
       1.789530606234e-02       2.627061880838e+04 
       1.802566198964e-02       2.625458405068e+04 
       1.815607006248e-02       2.623593451163e+04 
       1.828653112870e-02       2.621695912092e+04 
       1.841704606044e-02       2.619513855704e+04 
       1.854761575448e-02       2.617267466431e+04 
       1.867824113259e-02       2.614979021605e+04 
       1.880892314197e-02       2.612486907070e+04 
       1.893966275565e-02       2.609847976036e+04 
       1.907046097291e-02       2.607054844782e+04 
       1.920131881976e-02       2.604190216920e+04 
       1.933223734936e-02       2.601094493601e+04 
       1.946321764255e-02       2.598022645000e+04 
       1.959426080832e-02       2.594687197652e+04 
       1.972536798437e-02       2.591306893828e+04 
       1.985654033759e-02       2.587826619425e+04 
       1.998777906469e-02       2.584256729650e+04 
       2.011908539274e-02       2.580518817572e+04 
       2.025046057976e-02       2.576737276013e+04 
       2.038190591538e-02       2.572776263685e+04 
       2.051342272145e-02       2.568663968768e+04 
       2.064501235269e-02       2.564530020389e+04 
       2.077667619743e-02       2.560240292749e+04 
       2.090841567826e-02       2.555948623444e+04 
       2.104023225277e-02       2.551424379096e+04 
       2.117212741434e-02       2.546897686835e+04 
       2.130410269288e-02       2.542260706132e+04 
       2.143615965564e-02       2.537508584338e+04 
       2.156829990805e-02       2.532662272715e+04 
       2.170052509454e-02       2.527733978294e+04 
       2.183283689946e-02       2.522737019238e+04 
       2.196523704800e-02       2.517578352737e+04 
       2.209772730704e-02       2.512461938081e+04 
       2.223030948623e-02       2.507133308611e+04 
       2.236298543891e-02       2.501731783429e+04 
       2.249575706314e-02       2.496298899281e+04 
       2.262862630281e-02       2.490808292262e+04 
       2.276159514868e-02       2.485206831550e+04 
       2.289466563954e-02       2.479525217550e+04 
       2.302783986334e-02       2.473732159437e+04 
       2.316111995844e-02       2.467956316505e+04 
       2.329450811478e-02       2.462057820084e+04 
       2.342800657520e-02       2.456137394999e+04 
       2.356161763677e-02       2.450069413931e+04 
       2.369534365208e-02       2.443966169212e+04 
       2.382918703071e-02       2.437802381611e+04 
       2.396315024064e-02       2.431606825687e+04 
       2.409723580974e-02       2.425278286041e+04 
       2.423144632733e-02       2.418927613432e+04 
       2.436578444574e-02       2.412515959021e+04 
       2.450025288197e-02       2.406012779056e+04 
       2.463485441938e-02       2.399486445474e+04 
       2.476959190942e-02       2.392945138691e+04 
       2.490446827348e-02       2.386328418052e+04 
       2.503948650469e-02       2.379629595133e+04 
       2.517464966991e-02       2.372896620090e+04 
       2.530996091167e-02       2.366082536343e+04 
       2.544542345026e-02       2.359248596134e+04 
       2.558104058584e-02       2.352377356287e+04 
       2.571681570065e-02       2.345423936528e+04 
       2.585275226127e-02       2.338424205713e+04 
       2.598885382097e-02       2.331427453140e+04 
       2.612512402216e-02       2.324324445360e+04 
       2.626156659888e-02       2.317240963402e+04 
       2.639818537942e-02       2.310111526708e+04 
       2.653498428901e-02       2.302905649399e+04 
       2.667196735259e-02       2.295684542768e+04 
       2.680913869773e-02       2.288439592835e+04 
       2.694650255761e-02       2.281151068873e+04 
       2.708406327410e-02       2.273812225589e+04 
       2.722182530098e-02       2.266443416331e+04 
       2.735979320728e-02       2.259071654354e+04 
       2.749797168071e-02       2.251637507729e+04 
       2.763636553126e-02       2.244187496740e+04 
       2.777497969487e-02       2.236692174260e+04 
       2.791381923732e-02       2.229167320169e+04 
       2.805288935819e-02       2.221630850867e+04 
       2.819219539504e-02       2.214076710668e+04 
       2.833174282768e-02       2.206468438823e+04 
       2.847153728266e-02       2.198862928489e+04 
       2.861158453789e-02       2.191229514742e+04 
       2.875189052751e-02       2.183571037343e+04 
       2.889246134687e-02       2.175905404761e+04 
       2.903330325773e-02       2.168197509251e+04 
       2.917442269375e-02       2.160506403522e+04 
       2.931582626605e-02       2.152754979879e+04 
       2.945752076917e-02       2.144968111274e+04 
       2.959951318709e-02       2.137212814031e+04 
       2.974181069969e-02       2.129426177754e+04 
       2.988442068934e-02       2.121628044018e+04 
       3.002735074778e-02       2.113814136342e+04 
       3.017060868342e-02       2.105978454376e+04 
       3.031420252875e-02       2.098129131467e+04 
       3.045814054825e-02       2.090270899707e+04 
       3.060243124657e-02       2.082399854186e+04 
       3.074708337702e-02       2.074529753979e+04 
       3.089210595056e-02       2.066645647551e+04 
       3.103750824505e-02       2.058753763069e+04 
       3.118329981504e-02       2.050830397835e+04 
       3.132949050196e-02       2.042940506074e+04 
       3.147609044471e-02       2.035018608344e+04 
       3.162311009089e-02       2.027083191787e+04 
       3.177056020840e-02       2.019155054757e+04 
       3.191845189768e-02       2.011219116046e+04 
       3.206679660456e-02       2.003262332271e+04 
       3.221560613361e-02       1.995328294721e+04 
       3.236489266224e-02       1.987361648846e+04 
       3.251466875549e-02       1.979409843360e+04 
       3.266494738151e-02       1.971456432285e+04 
       3.281574192781e-02       1.963490779459e+04 
       3.296706621839e-02       1.955551168662e+04 
       3.311893453170e-02       1.947572387873e+04 
       3.327136161953e-02       1.939610042769e+04 
       3.342436272692e-02       1.931639017749e+04 
       3.357795361306e-02       1.923690272518e+04 
       3.373215057338e-02       1.915730055730e+04 
       3.388697046274e-02       1.907765915627e+04 
       3.404243071996e-02       1.899780257501e+04 
       3.419854939368e-02       1.891810019806e+04 
       3.435534516961e-02       1.883877177221e+04 
       3.451283739937e-02       1.875903098975e+04 
       3.467104613096e-02       1.867946421718e+04 
       3.482999214093e-02       1.859993782353e+04 
       3.498969696853e-02       1.852049901621e+04 
       3.515018295171e-02       1.844091975345e+04 
       3.531147326543e-02       1.836154484547e+04 
       3.547359196217e-02       1.828206174504e+04 
       3.563656401490e-02       1.820273574942e+04 
       3.580041536282e-02       1.812340963971e+04 
       3.596517295976e-02       1.804405845965e+04 
       3.613086482584e-02       1.796475586204e+04 
       3.629752010230e-02       1.788545372919e+04 
       3.646516910990e-02       1.780643733390e+04 
       3.663384341121e-02       1.772719213620e+04 
       3.680357587697e-02       1.764802205651e+04 
       3.697440075695e-02       1.756899812263e+04 
       3.714635375564e-02       1.748994115737e+04 
       3.731947211314e-02       1.741102489675e+04 
       3.749379469175e-02       1.733191705856e+04 
       3.766936206868e-02       1.725325664193e+04 
       3.784621663544e-02       1.717441314657e+04 
       3.802440270448e-02       1.709541174141e+04 
       3.820396662370e-02       1.701664877715e+04 
       3.838495689962e-02       1.693785849815e+04 
       3.856742432983e-02       1.685919942957e+04 
       3.875142214573e-02       1.678027268543e+04 
       3.893700616651e-02       1.670182326534e+04 
       3.912423496528e-02       1.662304187777e+04 
       3.931317004871e-02       1.654447118173e+04 
       3.950387605140e-02       1.646580632252e+04 
       3.969642094645e-02       1.638724084566e+04 
       3.989087627389e-02       1.630859583559e+04 
       4.008731738874e-02       1.622982780837e+04 
       4.028582373086e-02       1.615133755208e+04 
       4.048647911873e-02       1.607258091458e+04 
       4.068937206991e-02       1.599403829752e+04 
       4.089459615094e-02       1.591537297414e+04 
       4.110225036007e-02       1.583672658306e+04 
       4.131243954649e-02       1.575767255210e+04 
       4.152527487030e-02       1.567895741032e+04 
       4.174087430790e-02       1.560017050742e+04 
       4.195936320838e-02       1.552139845293e+04 
       4.218087490702e-02       1.544237545949e+04 
       4.240555140299e-02       1.536317182335e+04 
       4.263354410941e-02       1.528400784938e+04 
       4.286501468507e-02       1.520480456150e+04 
       4.310013595859e-02       1.512532363688e+04 
       4.333909295731e-02       1.504587637500e+04 
       4.358208405544e-02       1.496605216778e+04 
       4.382932225803e-02       1.488633668218e+04 
       4.408103664012e-02       1.480643400280e+04 
       4.433747396386e-02       1.472600702308e+04 
       4.459890050003e-02       1.464568201906e+04 
       4.486560408521e-02       1.456497106914e+04 
       4.513789645129e-02       1.448391424411e+04 
       4.541611587097e-02       1.440276956112e+04 
       4.570063017063e-02       1.432117865575e+04 
       4.599184017234e-02       1.423937453676e+04 
       4.629018363836e-02       1.415683244616e+04 
       4.659613980659e-02       1.407411531544e+04 
       4.691023462331e-02       1.399115043040e+04 
       4.723304680194e-02       1.390752983780e+04 
       4.756521486453e-02       1.382316519879e+04 
       4.790744535673e-02       1.373841220998e+04 
       4.826052247050e-02       1.365296672211e+04 
       4.862531936259e-02       1.356691114497e+04 
       4.900281152508e-02       1.348015630312e+04 
       4.939409265034e-02       1.339250116333e+04 
       4.980039354185e-02       1.330385626914e+04 
       5.022310476130e-02       1.321419697222e+04 
       5.066380387931e-02       1.312347250023e+04 
       5.112428842262e-02       1.303107466410e+04 
       5.160661589781e-02       1.293780956325e+04 
       5.211315263573e-02       1.284281029747e+04 
       5.264663365859e-02       1.274607786496e+04 
       5.321023633812e-02       1.264714501545e+04 
       5.380767129522e-02       1.254597595510e+04 
       5.444329477207e-02       1.244216754516e+04 
       5.512224751372e-02       1.233522445524e+04 
       5.585062583733e-02       1.222462271724e+04 
       5.663569060769e-02       1.210955950930e+04 
       5.748611836839e-02       1.198944484334e+04 
       5.841229409229e-02       1.186280227274e+04 
       5.942663352024e-02       1.172828100784e+04 
       6.054389889462e-02       1.158387802335e+04 
       6.178142573000e-02       1.142661020681e+04 
