# Matter power spectrum P(k) at redshift z=0
# for k=1.04317e-05 to 0.626625 h/Mpc,
# number of wavenumbers equal to 560
#    1:k (h/Mpc)              2:P (Mpc/h)^3        
       1.043167250743e-05       5.133208156115e+01 
       2.330677127374e-05       1.114598389281e+02 
       3.622707073562e-05       1.705536587553e+02 
       4.922730230297e-05       2.292419578823e+02 
       6.234277101011e-05       2.878834189232e+02 
       7.560967003597e-05       3.467475460411e+02 
       8.906540526820e-05       4.060652840826e+02 
       1.027489342246e-04       4.660497182398e+02 
       1.167011236783e-04       5.269067250736e+02 
       1.309651303662e-04       5.888414107920e+02 
       1.455868091676e-04       6.520625910802e+02 
       1.606151530797e-04       7.167862876442e+02 
       1.761027691397e-04       7.832387140942e+02 
       1.921063940767e-04       8.516590095702e+02 
       2.086874528208e-04       9.223018524940e+02 
       2.259126619255e-04       9.954400574167e+02 
       2.438546783023e-04       1.071367176189e+03 
       2.625927912086e-04       1.150400116786e+03 
       2.822136518912e-04       1.232881772803e+03 
       3.028120303546e-04       1.319183608529e+03 
       3.244915820042e-04       1.409708135951e+03 
       3.473655980187e-04       1.504891116639e+03 
       3.715577018446e-04       1.605203397382e+03 
       3.972024399406e-04       1.711152071412e+03 
       4.244456978318e-04       1.823280721641e+03 
       4.534448531999e-04       1.942168344429e+03 
       4.843685574714e-04       2.068426551402e+03 
       5.173960187038e-04       2.202694532170e+03 
       5.527156455840e-04       2.345631249652e+03 
       5.905229108738e-04       2.497904415189e+03 
       6.310173100133e-04       2.660175834573e+03 
       6.743983347374e-04       2.833082989774e+03 
       7.208604589141e-04       3.017217070661e+03 
       7.705872462136e-04       3.213098102921e+03 
       8.237448301316e-04       3.421148484569e+03 
       8.804751683420e-04       3.641666757804e+03 
       9.408896057534e-04       3.874803835839e+03 
       1.005063357332e-03       4.120544345300e+03 
       1.073031509133e-03       4.378695348711e+03 
       1.144787016646e-03       4.648884180458e+03 
       1.220280963027e-03       4.930566217593e+03 
       1.299425064678e-03       5.223042118329e+03 
       1.382096136112e-03       5.525463417260e+03 
       1.468142009152e-03       5.836895830114e+03 
       1.557388284121e-03       6.156364036843e+03 
       1.649645284042e-03       6.482835669534e+03 
       1.744714669364e-03       6.815271424443e+03 
       1.842395314948e-03       7.152649645116e+03 
       1.942488213364e-03       7.493985784289e+03 
       2.044800317166e-03       7.838347485517e+03 
       2.149147348603e-03       8.184863928556e+03 
       2.255355681891e-03       8.532732207961e+03 
       2.363263443734e-03       8.881218961644e+03 
       2.472720990047e-03       9.229661218565e+03 
       2.583590909876e-03       9.577462481625e+03 
       2.695747689732e-03       9.924091152804e+03 
       2.809077148954e-03       1.026907417756e+04 
       2.923475733732e-03       1.061199286957e+04 
       3.038849736315e-03       1.095248138530e+04 
       3.155114487942e-03       1.129021626155e+04 
       3.272193559439e-03       1.162491724052e+04 
       3.390017992057e-03       1.195634063560e+04 
       3.508525572552e-03       1.228427486085e+04 
       3.627660160250e-03       1.260853688698e+04 
       3.747371069417e-03       1.292897320203e+04 
       3.867612507220e-03       1.324544953256e+04 
       3.988343065576e-03       1.355785610960e+04 
       4.109525263966e-03       1.386609828078e+04 
       4.231125139608e-03       1.417010099218e+04 
       4.353111881063e-03       1.446980047423e+04 
       4.475457501311e-03       1.476514617454e+04 
       4.598136546402e-03       1.505610083214e+04 
       4.721125836038e-03       1.534262708923e+04 
       4.844404232661e-03       1.562469020723e+04 
       4.967952435930e-03       1.590230730293e+04 
       5.091752799767e-03       1.617535384176e+04 
       5.215789169399e-03       1.644397684750e+04 
       5.340046736150e-03       1.670809877860e+04 
       5.464511907938e-03       1.696774770039e+04 
       5.589172193668e-03       1.722294727410e+04 
       5.714016099955e-03       1.747393653315e+04 
       5.839033038741e-03       1.772052286258e+04 
       5.964213244584e-03       1.796268723338e+04 
       6.089547700511e-03       1.820058161710e+04 
       6.215028071472e-03       1.843422653454e+04 
       6.340646644550e-03       1.866378809978e+04 
       6.466396275167e-03       1.888885939556e+04 
       6.592270338630e-03       1.910966849970e+04 
       6.718262686433e-03       1.932643262319e+04 
       6.844367606797e-03       1.953883886479e+04 
       6.970579788998e-03       1.974711763671e+04 
       7.096894291073e-03       1.995151080201e+04 
       7.223306510557e-03       2.015192046911e+04 
       7.349812157927e-03       2.034830733819e+04 
       7.476407232479e-03       2.054073314811e+04 
       7.603088000393e-03       2.072890560059e+04 
       7.729850974749e-03       2.091402152866e+04 
       7.856692897324e-03       2.109470019564e+04 
       7.983610721972e-03       2.127155371006e+04 
       8.110601599446e-03       2.144469470682e+04 
       8.237662863512e-03       2.161411891542e+04 
       8.364792018242e-03       2.177991825541e+04 
       8.491986726372e-03       2.194146896848e+04 
       8.619244798612e-03       2.209987532105e+04 
       8.746564183846e-03       2.225493364660e+04 
       8.873942960113e-03       2.240624232287e+04 
       9.001379326319e-03       2.255477291440e+04 
       9.128871594604e-03       2.269920733520e+04 
       9.256418183308e-03       2.284024204284e+04 
       9.384017610486e-03       2.297798419659e+04 
       9.511668487922e-03       2.311227373609e+04 
       9.639369515603e-03       2.324332560605e+04 
       9.767119476607e-03       2.337116079840e+04 
       9.894917232375e-03       2.349572562568e+04 
       1.002276171834e-02       2.361712524061e+04 
       1.015065193988e-02       2.373535182468e+04 
       1.027858696856e-02       2.385049877541e+04 
       1.040656593865e-02       2.396254156817e+04 
       1.053458804388e-02       2.407152236603e+04 
       1.066265253448e-02       2.417751795426e+04 
       1.079075871439e-02       2.428050651746e+04 
       1.091890593862e-02       2.438058240153e+04 
       1.104709361094e-02       2.447774648348e+04 
       1.117532118156e-02       2.457159083471e+04 
       1.130358814510e-02       2.466354527734e+04 
       1.143189403867e-02       2.475165490379e+04 
       1.156023844004e-02       2.483805209100e+04 
       1.168862096598e-02       2.492130127382e+04 
       1.181704127072e-02       2.500167615088e+04 
       1.194549904450e-02       2.507948539935e+04 
       1.207399401221e-02       2.515450220383e+04 
       1.220252593215e-02       2.522698260153e+04 
       1.233109459488e-02       2.529614270434e+04 
       1.245969982214e-02       2.536432357659e+04 
       1.258834146580e-02       2.542919634020e+04 
       1.271701940700e-02       2.549149687705e+04 
       1.284573355524e-02       2.555136680507e+04 
       1.297448384759e-02       2.560881943514e+04 
       1.310327024797e-02       2.566391749226e+04 
       1.323209274644e-02       2.571655254443e+04 
       1.336095135856e-02       2.576691534995e+04 
       1.348984612485e-02       2.581507984797e+04 
       1.361877711022e-02       2.586057265708e+04 
       1.374774440348e-02       2.590416360277e+04 
       1.387674811693e-02       2.594453447745e+04 
       1.400578838590e-02       2.598433741768e+04 
       1.413486536839e-02       2.602115932878e+04 
       1.426397924479e-02       2.605587866583e+04 
       1.439313021748e-02       2.608843341563e+04 
       1.452231851066e-02       2.611892034753e+04 
       1.465154437003e-02       2.614730303798e+04 
       1.478080806266e-02       2.617362693458e+04 
       1.491010987672e-02       2.619801147546e+04 
       1.503945012142e-02       2.622039049583e+04 
       1.516882912681e-02       2.624074121421e+04 
       1.529824724372e-02       2.625922550410e+04 
       1.542770484365e-02       2.627574098970e+04 
       1.555720231876e-02       2.629038548657e+04 
       1.568674008178e-02       2.630297233615e+04 
       1.581631856605e-02       2.631410108678e+04 
       1.594593822550e-02       2.632320741882e+04 
       1.607559953470e-02       2.633053422757e+04 
       1.620530298888e-02       2.633607365372e+04 
       1.633504910406e-02       2.633987736229e+04 
       1.646483841705e-02       2.634195342401e+04 
       1.659467148566e-02       2.634228018468e+04 
       1.672454888873e-02       2.634106560825e+04 
       1.685447122634e-02       2.633729563147e+04 
       1.698443911995e-02       2.633350600531e+04 
       1.711445321257e-02       2.632739210038e+04 
       1.724451416897e-02       2.631964652884e+04 
       1.737462267589e-02       2.631030322122e+04 
       1.750477944225e-02       2.629946155932e+04 
       1.763498519944e-02       2.628624760286e+04 
       1.776524070154e-02       2.627324654121e+04 
       1.789554672562e-02       2.625779261012e+04 
       1.802590407204e-02       2.624023608358e+04 
       1.815631356475e-02       2.622210791348e+04 
       1.828677605162e-02       2.620327196077e+04 
       1.841729240481e-02       2.618165746615e+04 
       1.854786352111e-02       2.615929485535e+04 
       1.867849032233e-02       2.613611008299e+04 
       1.880917375569e-02       2.611050056410e+04 
       1.893991479424e-02       2.608416568701e+04 
       1.907071443728e-02       2.605652962303e+04 
       1.920157371084e-02       2.602765053972e+04 
       1.933249366812e-02       2.599746851127e+04 
       1.946347538996e-02       2.596614822813e+04 
       1.959451998539e-02       2.593353276647e+04 
       1.972562859213e-02       2.589983918697e+04 
       1.985680237711e-02       2.586547083440e+04 
       1.998804253705e-02       2.582941281021e+04 
       2.011935029905e-02       2.579168247007e+04 
       2.025072692116e-02       2.575387468656e+04 
       2.038217369303e-02       2.571454251301e+04 
       2.051369193655e-02       2.567407553685e+04 
       2.064528300646e-02       2.563186175096e+04 
       2.077694829113e-02       2.558994646397e+04 
       2.090868921316e-02       2.554642683673e+04 
       2.104050723019e-02       2.550139947503e+04 
       2.117240383563e-02       2.545630288756e+04 
       2.130438055942e-02       2.540939309775e+04 
       2.143643896883e-02       2.536188692935e+04 
       2.156858066933e-02       2.531404507401e+04 
       2.170080730539e-02       2.526471852500e+04 
       2.183312056141e-02       2.521457091637e+04 
       2.196552216257e-02       2.516351726202e+04 
       2.209801387583e-02       2.511164186381e+04 
       2.223059751086e-02       2.505842039940e+04 
       2.236327492103e-02       2.500484197140e+04 
       2.249604800446e-02       2.495089031298e+04 
       2.262891870506e-02       2.489519363901e+04 
       2.276188901364e-02       2.483980982921e+04 
       2.289496096903e-02       2.478306468798e+04 
       2.302813665923e-02       2.472552136027e+04 
       2.316141822262e-02       2.466736690275e+04 
       2.329480784921e-02       2.460853302095e+04 
       2.342830778189e-02       2.454891793005e+04 
       2.356192031774e-02       2.448817014093e+04 
       2.369564780943e-02       2.442762306967e+04 
       2.382949266658e-02       2.436609698524e+04 
       2.396345735722e-02       2.430385274299e+04 
       2.409754440927e-02       2.424087514240e+04 
       2.423175641210e-02       2.417746184417e+04 
       2.436609601810e-02       2.411349926063e+04 
       2.450056594433e-02       2.404875698044e+04 
       2.463516897418e-02       2.398312664950e+04 
       2.476990795920e-02       2.391728021861e+04 
       2.490478582080e-02       2.385080199812e+04 
       2.503980555219e-02       2.378428204892e+04 
       2.517497022029e-02       2.371692989213e+04 
       2.531028296769e-02       2.364930403290e+04 
       2.544574701476e-02       2.358061174087e+04 
       2.558136566171e-02       2.351180590474e+04 
       2.571714229085e-02       2.344267801857e+04 
       2.585308036884e-02       2.337288840217e+04 
       2.598918344902e-02       2.330265676675e+04 
       2.612545517387e-02       2.323206497314e+04 
       2.626189927751e-02       2.316157812510e+04 
       2.639851958831e-02       2.308970302340e+04 
       2.653532003157e-02       2.301842138044e+04 
       2.667230463232e-02       2.294619759095e+04 
       2.680947751822e-02       2.287358935972e+04 
       2.694684292254e-02       2.280030680685e+04 
       2.708440518722e-02       2.272718992862e+04 
       2.722216876615e-02       2.265342900939e+04 
       2.736013822845e-02       2.257970145018e+04 
       2.749831826192e-02       2.250545623770e+04 
       2.763671367666e-02       2.243096624144e+04 
       2.777532940871e-02       2.235612615196e+04 
       2.791417052394e-02       2.228111152215e+04 
       2.805324222207e-02       2.220566947629e+04 
       2.819254984075e-02       2.213024551490e+04 
       2.833209885990e-02       2.205426687925e+04 
       2.847189490620e-02       2.197818455410e+04 
       2.861194375769e-02       2.190188794620e+04 
       2.875225134861e-02       2.182527782713e+04 
       2.889282377445e-02       2.174905095296e+04 
       2.903366729712e-02       2.167179393965e+04 
       2.917478835039e-02       2.159481196604e+04 
       2.931619354554e-02       2.151737500578e+04 
       2.945788967724e-02       2.143999283449e+04 
       2.959988372963e-02       2.136271643992e+04 
       2.974218288275e-02       2.128445457730e+04 
       2.988479451910e-02       2.120655926988e+04 
       3.002772623062e-02       2.112842936492e+04 
       3.017098582586e-02       2.105029428060e+04 
       3.031458133751e-02       2.097169164528e+04 
       3.045852103022e-02       2.089334562407e+04 
       3.060281340881e-02       2.081472452009e+04 
       3.074746722680e-02       2.073645681867e+04 
       3.089249149533e-02       2.065722762886e+04 
       3.103789549248e-02       2.057836120736e+04 
       3.118368877302e-02       2.049931641698e+04 
       3.132988117858e-02       2.042024146301e+04 
       3.147648284829e-02       2.034122171955e+04 
       3.162350422998e-02       2.026198532621e+04 
       3.177095609180e-02       2.018267106700e+04 
       3.191884953445e-02       2.010339590408e+04 
       3.206719600399e-02       2.002432690095e+04 
       3.221600730527e-02       1.994454765053e+04 
       3.236529561599e-02       1.986518626548e+04 
       3.251507350146e-02       1.978542326233e+04 
       3.266535393014e-02       1.970611138837e+04 
       3.281615028984e-02       1.962650662604e+04 
       3.296747640488e-02       1.954700075099e+04 
       3.311934655405e-02       1.946790374128e+04 
       3.327177548949e-02       1.938778707099e+04 
       3.342477845658e-02       1.930843045595e+04 
       3.357837121489e-02       1.922860383844e+04 
       3.373257006023e-02       1.914923490069e+04 
       3.388739184787e-02       1.906956627695e+04 
       3.404285401705e-02       1.898994533725e+04 
       3.419897461684e-02       1.891038013710e+04 
       3.435577233339e-02       1.883081524674e+04 
       3.451326651880e-02       1.875129634510e+04 
       3.467147722156e-02       1.867201480147e+04 
       3.483042521874e-02       1.859222024504e+04 
       3.499013205010e-02       1.851275497250e+04 
       3.515062005416e-02       1.843361603155e+04 
       3.531191240646e-02       1.835435655225e+04 
       3.547403316007e-02       1.827490404615e+04 
       3.563700728862e-02       1.819531906521e+04 
       3.580086073193e-02       1.811603759212e+04 
       3.596562044456e-02       1.803680616132e+04 
       3.613131444733e-02       1.795759920691e+04 
       3.629797188223e-02       1.787818354882e+04 
       3.646562307083e-02       1.779954080594e+04 
       3.663429957652e-02       1.772043675930e+04 
       3.680403427091e-02       1.764092075066e+04 
       3.697486140469e-02       1.756229816644e+04 
       3.714681668331e-02       1.748293207858e+04 
       3.731993734787e-02       1.740393160356e+04 
       3.749426226174e-02       1.732519462274e+04 
       3.766983200323e-02       1.724634242154e+04 
       3.784668896503e-02       1.716765227212e+04 
       3.802487746084e-02       1.708885183806e+04 
       3.820444383986e-02       1.700981126559e+04 
       3.838543660998e-02       1.693109113313e+04 
       3.856790657025e-02       1.685268428326e+04 
       3.875190695361e-02       1.677415766887e+04 
       3.893749358088e-02       1.669525065883e+04 
       3.912472502689e-02       1.661673537227e+04 
       3.931366280015e-02       1.653781576139e+04 
       3.950437153718e-02       1.645931380434e+04 
       3.969691921316e-02       1.638063107727e+04 
       3.989137737029e-02       1.630218755865e+04 
       4.008782136595e-02       1.622347644440e+04 
       4.028633064246e-02       1.614488947145e+04 
       4.048698902096e-02       1.606624558879e+04 
       4.068988502182e-02       1.598776615678e+04 
       4.089511221463e-02       1.590938881499e+04 
       4.110276960086e-02       1.583060868683e+04 
       4.131296203318e-02       1.575171938245e+04 
       4.152580067540e-02       1.567294694766e+04 
       4.174140350793e-02       1.559429201728e+04 
       4.195989588417e-02       1.551523037216e+04 
       4.218141114403e-02       1.543625681336e+04 
       4.240609129169e-02       1.535753383971e+04 
       4.263408774568e-02       1.527807740604e+04 
       4.286556217067e-02       1.519894861102e+04 
       4.310068740162e-02       1.511957947763e+04 
       4.333964847278e-02       1.504034755593e+04 
       4.358264376590e-02       1.496035750323e+04 
       4.382988629421e-02       1.488057247940e+04 
       4.408160514172e-02       1.480059871455e+04 
       4.433804708040e-02       1.472037759783e+04 
       4.459947839179e-02       1.463984332801e+04 
       4.486618692433e-02       1.455923375506e+04 
       4.513848442298e-02       1.447830042884e+04 
       4.541670917487e-02       1.439717328033e+04 
       4.570122902237e-02       1.431549426153e+04 
       4.599244480533e-02       1.423381635236e+04 
       4.629079430581e-02       1.415154477317e+04 
       4.659675678384e-02       1.406884482887e+04 
       4.691085821050e-02       1.398548062413e+04 
       4.723367732710e-02       1.390194511130e+04 
       4.756585268715e-02       1.381768719846e+04 
       4.790809087194e-02       1.373293491742e+04 
       4.826117611389e-02       1.364751555517e+04 
       4.862598161596e-02       1.356150197158e+04 
       4.900348292312e-02       1.347457117508e+04 
       4.939477378860e-02       1.338688715537e+04 
       4.980108508618e-02       1.329830233503e+04 
       5.022380745916e-02       1.320877728838e+04 
       5.066451857333e-02       1.311781982109e+04 
       5.112501606697e-02       1.302587430321e+04 
       5.160735757804e-02       1.293221964036e+04 
       5.211390959294e-02       1.283709607514e+04 
       5.264740731902e-02       1.274046778737e+04 
       5.321102834943e-02       1.264155752683e+04 
       5.380848357124e-02       1.254036286389e+04 
       5.444412954796e-02       1.243646521599e+04 
       5.512310741393e-02       1.232937908428e+04 
       5.585151395897e-02       1.221871371278e+04 
       5.663661062186e-02       1.210385594913e+04 
       5.748707464076e-02       1.198356758739e+04 
       5.841329182173e-02       1.185690031540e+04 
       5.942767888745e-02       1.172230641408e+04 
       6.054499919945e-02       1.157764269342e+04 
       6.178258947200e-02       1.142039951711e+04 
