# Matter power spectrum P(k) at redshift z=0
# for k=1.04564e-05 to 0.629143 h/Mpc,
# number of wavenumbers equal to 563
#    1:k (h/Mpc)              2:P (Mpc/h)^3        
       1.045636895265e-05       5.098354501929e+01 
       2.320922115178e-05       1.100051013163e+02 
       3.600632431801e-05       1.680166710407e+02 
       4.888142798912e-05       2.256277644417e+02 
       6.186883146348e-05       2.831864388801e+02 
       7.500368360763e-05       3.409538799778e+02 
       8.832229210133e-05       3.991535245272e+02 
       1.018624461571e-04       4.579912089248e+02 
       1.156637567820e-04       5.176654919151e+02 
       1.297680186832e-04       5.783738976080e+02 
       1.442195979261e-04       6.403172395826e+02 
       1.590658494075e-04       7.037029740219e+02 
       1.743575680501e-04       7.687480598272e+02 
       1.901494773039e-04       8.356815520125e+02 
       2.065007579594e-04       9.047470962978e+02 
       2.234756193304e-04       9.762053781604e+02 
       2.411439133925e-04       1.050336580147e+03 
       2.595817902814e-04       1.127442874999e+03 
       2.788723904136e-04       1.207850913119e+03 
       2.991065641043e-04       1.291914281427e+03 
       3.203836035851e-04       1.380015864521e+03 
       3.428119643877e-04       1.472570020963e+03 
       3.665099428332e-04       1.570024381317e+03 
       3.916062635578e-04       1.672861099413e+03 
       4.182405156041e-04       1.781597294938e+03 
       4.465633579687e-04       1.896784341956e+03 
       4.767363966796e-04       2.019005616459e+03 
       5.089316175504e-04       2.148872272352e+03 
       5.433302451132e-04       2.287016527275e+03 
       5.801208938516e-04       2.434082017703e+03 
       6.194968891694e-04       2.590710848050e+03 
       6.616526697911e-04       2.757527108508e+03 
       7.067792469333e-04       2.935116950550e+03 
       7.550587917072e-04       3.124005735834e+03 
       8.066585471738e-04       3.324633302115e+03 
       8.617244019099e-04       3.537328819871e+03 
       9.203745935783e-04       3.762287332222e+03 
       9.826941014652e-04       3.999550332903e+03 
       1.048730303508e-03       4.248992510337e+03 
       1.118490394209e-03       4.510316649442e+03 
       1.191940885247e-03       4.783057701029e+03 
       1.269009267587e-03       5.066595934003e+03 
       1.349587651306e-03       5.360176506778e+03 
       1.433537972911e-03       5.662900424633e+03 
       1.520698214664e-03       5.973868191094e+03 
       1.610889036725e-03       6.292096634581e+03 
       1.703920273826e-03       6.616584752882e+03 
       1.799596865822e-03       6.946338836476e+03 
       1.897723939794e-03       7.280392808284e+03 
       1.998110907511e-03       7.617824149278e+03 
       2.100574563646e-03       7.957765304156e+03 
       2.204941256891e-03       8.299410455079e+03 
       2.311048257601e-03       8.642019935975e+03 
       2.418744467591e-03       8.984920330384e+03 
       2.527890618299e-03       9.327503145913e+03 
       2.638359090789e-03       9.669222133442e+03 
       2.750033471596e-03       1.000959019712e+04 
       2.862807936870e-03       1.034817407068e+04 
       2.976586536610e-03       1.068459080495e+04 
       3.091282432584e-03       1.101850249812e+04 
       3.206817128354e-03       1.134961388179e+04 
       3.323119717777e-03       1.167766480168e+04 
       3.440126169075e-03       1.200242965000e+04 
       3.557778654664e-03       1.232371237747e+04 
       3.676024931944e-03       1.264134329837e+04 
       3.794817776785e-03       1.295517620527e+04 
       3.914114469059e-03       1.326508949569e+04 
       4.033876328075e-03       1.357097539970e+04 
       4.154068294867e-03       1.387274422005e+04 
       4.274658557803e-03       1.417032507977e+04 
       4.395618217796e-03       1.446365433664e+04 
       4.516920989415e-03       1.475268344851e+04 
       4.638542934338e-03       1.503737754086e+04 
       4.760462223798e-03       1.531767977143e+04 
       4.882658926907e-03       1.559358404908e+04 
       5.005114822051e-03       1.586512259056e+04 
       5.127813228780e-03       1.613223405640e+04 
       5.250738857901e-03       1.639488787364e+04 
       5.373877677710e-03       1.665323825559e+04 
       5.497216794538e-03       1.690709836950e+04 
       5.620744345980e-03       1.715666140356e+04 
       5.744449405375e-03       1.740175204183e+04 
       5.868321896250e-03       1.764249512104e+04 
       5.992352515624e-03       1.787819010684e+04 
       6.116532665156e-03       1.811026364377e+04 
       6.240854389276e-03       1.833832126261e+04 
       6.365310319521e-03       1.856222815709e+04 
       6.489893624397e-03       1.878146672604e+04 
       6.614597964153e-03       1.899644363668e+04 
       6.739417449954e-03       1.920730046325e+04 
       6.864346606965e-03       1.941403909514e+04 
       6.989380340935e-03       1.961669460784e+04 
       7.114513907923e-03       1.981517665529e+04 
       7.239742886824e-03       2.000978881831e+04 
       7.365063154414e-03       2.020022807258e+04 
       7.490470862656e-03       2.038727915196e+04 
       7.615962418045e-03       2.056990243338e+04 
       7.741534462771e-03       2.074859897872e+04 
       7.867183857538e-03       2.092348238216e+04 
       7.992907665874e-03       2.109455725539e+04 
       8.118703139773e-03       2.126181387962e+04 
       8.244567706566e-03       2.142526822747e+04 
       8.370498956879e-03       2.158511471783e+04 
       8.496494633601e-03       2.174124910062e+04 
       8.622552621745e-03       2.189378310431e+04 
       8.748670939136e-03       2.204273177343e+04 
       8.874847727851e-03       2.218810512290e+04 
       9.001081246332e-03       2.232996524175e+04 
       9.127369862126e-03       2.246826775812e+04 
       9.253712045182e-03       2.260321265502e+04 
       9.380106361676e-03       2.273472070916e+04 
       9.506551468303e-03       2.286291421836e+04 
       9.633046106998e-03       2.298776049660e+04 
       9.759589100061e-03       2.310930575888e+04 
       9.886179345642e-03       2.322762270059e+04 
       1.001281581356e-02       2.334273455553e+04 
       1.013949754142e-02       2.345462615254e+04 
       1.026622363105e-02       2.356342641157e+04 
       1.039299324511e-02       2.366910366147e+04 
       1.051980560407e-02       2.377174208164e+04 
       1.064665998330e-02       2.387128459823e+04 
       1.077355571038e-02       2.396786813247e+04 
       1.090049216268e-02       2.406149593510e+04 
       1.102746876500e-02       2.415216999424e+04 
       1.115448498746e-02       2.423998434992e+04 
       1.128154034349e-02       2.432490159987e+04 
       1.140863438798e-02       2.440708440358e+04 
       1.153576671558e-02       2.448563056591e+04 
       1.166293695903e-02       2.456302213350e+04 
       1.179014478775e-02       2.463690325069e+04 
       1.191738990638e-02       2.470810068895e+04 
       1.204467205353e-02       2.477666522656e+04 
       1.217199100056e-02       2.484260267979e+04 
       1.229934655047e-02       2.490603714763e+04 
       1.242673853686e-02       2.496690355191e+04 
       1.255416682297e-02       2.502509033710e+04 
       1.268163130077e-02       2.508099790370e+04 
       1.280913189016e-02       2.513429425347e+04 
       1.293666853815e-02       2.518460041740e+04 
       1.306424121823e-02       2.523297041392e+04 
       1.319184992962e-02       2.527999849842e+04 
       1.331949469674e-02       2.532398765860e+04 
       1.344717556862e-02       2.536554361005e+04 
       1.357489261836e-02       2.540493067330e+04 
       1.370264594273e-02       2.544190678307e+04 
       1.383043566168e-02       2.547685816728e+04 
       1.395826191797e-02       2.550875635362e+04 
       1.408612487683e-02       2.554027420017e+04 
       1.421402472560e-02       2.556789475048e+04 
       1.434196167352e-02       2.559423686878e+04 
       1.446993595138e-02       2.561938264809e+04 
       1.459794781138e-02       2.564078242675e+04 
       1.472599752688e-02       2.566206640725e+04 
       1.485408539224e-02       2.567967341458e+04 
       1.498221172273e-02       2.569611514182e+04 
       1.511037685432e-02       2.571065325031e+04 
       1.523858114369e-02       2.572414430613e+04 
       1.536682496809e-02       2.573450220703e+04 
       1.549510872531e-02       2.574387410455e+04 
       1.562343283370e-02       2.575034771292e+04 
       1.575179773210e-02       2.575665194769e+04 
       1.588020387990e-02       2.576020434288e+04 
       1.600865175708e-02       2.576117015797e+04 
       1.613714186427e-02       2.576245727355e+04 
       1.626567472279e-02       2.576007918804e+04 
       1.639425087480e-02       2.575750245353e+04 
       1.652287088337e-02       2.575267610158e+04 
       1.665153533264e-02       2.574616306272e+04 
       1.678024482797e-02       2.573845597190e+04 
       1.690899999610e-02       2.572953184238e+04 
       1.703780148532e-02       2.571928365319e+04 
       1.716664996570e-02       2.570599265926e+04 
       1.729554612930e-02       2.569339237366e+04 
       1.742449069040e-02       2.567697529788e+04 
       1.755348438576e-02       2.566086130819e+04 
       1.768252797486e-02       2.564242343269e+04 
       1.781162224025e-02       2.562308343565e+04 
       1.794076798779e-02       2.560330049996e+04 
       1.806996604700e-02       2.558032622216e+04 
       1.819921727137e-02       2.555757047151e+04 
       1.832852253876e-02       2.553329692704e+04 
       1.845788275170e-02       2.550684331117e+04 
       1.858729883786e-02       2.548053942362e+04 
       1.871677175036e-02       2.545149895241e+04 
       1.884630246827e-02       2.542268184326e+04 
       1.897589199700e-02       2.539140908089e+04 
       1.910554136878e-02       2.535977109970e+04 
       1.923525164311e-02       2.532661865632e+04 
       1.936502390726e-02       2.529252861215e+04 
       1.949485927680e-02       2.525760926758e+04 
       1.962475889609e-02       2.522164423864e+04 
       1.975472393887e-02       2.518510651342e+04 
       1.988475560877e-02       2.514683671171e+04 
       2.001485513997e-02       2.510792344433e+04 
       2.014502379773e-02       2.506674362654e+04 
       2.027526287906e-02       2.502646962594e+04 
       2.040557371339e-02       2.498399191155e+04 
       2.053595766317e-02       2.494150633109e+04 
       2.066641612461e-02       2.489711794759e+04 
       2.079695052840e-02       2.485221194239e+04 
       2.092756234042e-02       2.480742430932e+04 
       2.105825306252e-02       2.476044792113e+04 
       2.118902423328e-02       2.471356613773e+04 
       2.131987742885e-02       2.466522357135e+04 
       2.145081426378e-02       2.461589219140e+04 
       2.158183639187e-02       2.456663868002e+04 
       2.171294550705e-02       2.451685154127e+04 
       2.184414334433e-02       2.446521583348e+04 
       2.197543168073e-02       2.441358885639e+04 
       2.210681233623e-02       2.436032897509e+04 
       2.223828717483e-02       2.430707363696e+04 
       2.236985810555e-02       2.425326321963e+04 
       2.250152708349e-02       2.419862511772e+04 
       2.263329611097e-02       2.414343009438e+04 
       2.276516723866e-02       2.408751920924e+04 
       2.289714256672e-02       2.403153721099e+04 
       2.302922424604e-02       2.397459126647e+04 
       2.316141447952e-02       2.391636264691e+04 
       2.329371552328e-02       2.385869272706e+04 
       2.342612968806e-02       2.379985644717e+04 
       2.355865934055e-02       2.374057209481e+04 
       2.369130690484e-02       2.368078281734e+04 
       2.382407486385e-02       2.362041068462e+04 
       2.395696576085e-02       2.355957906946e+04 
       2.408998220101e-02       2.349860350397e+04 
       2.422312685302e-02       2.343615015229e+04 
       2.435640245074e-02       2.337420112540e+04 
       2.448981179492e-02       2.331157587687e+04 
       2.462335775493e-02       2.324818884335e+04 
       2.475704327065e-02       2.318461908072e+04 
       2.489087135431e-02       2.312078783437e+04 
       2.502484509246e-02       2.305675550066e+04 
       2.515896764796e-02       2.299208584150e+04 
       2.529324226211e-02       2.292669403872e+04 
       2.542767225674e-02       2.286122331740e+04 
       2.556226103649e-02       2.279575076622e+04 
       2.569701209110e-02       2.272964902652e+04 
       2.583192899774e-02       2.266327717709e+04 
       2.596701542355e-02       2.259644406818e+04 
       2.610227512813e-02       2.252951204382e+04 
       2.623771196621e-02       2.246186391067e+04 
       2.637332989035e-02       2.239467395448e+04 
       2.650913295380e-02       2.232678721078e+04 
       2.664512531341e-02       2.225850829402e+04 
       2.678131123265e-02       2.219012584282e+04 
       2.691769508477e-02       2.212166840126e+04 
       2.705428135604e-02       2.205257112397e+04 
       2.719107464915e-02       2.198378551725e+04 
       2.732807968669e-02       2.191427956796e+04 
       2.746530131476e-02       2.184478320423e+04 
       2.760274450678e-02       2.177524404369e+04 
       2.774041436735e-02       2.170526650636e+04 
       2.787831613634e-02       2.163533191386e+04 
       2.801645519309e-02       2.156515367060e+04 
       2.815483706076e-02       2.149478621226e+04 
       2.829346741088e-02       2.142436741601e+04 
       2.843235206809e-02       2.135370745097e+04 
       2.857149701502e-02       2.128270302430e+04 
       2.871090839739e-02       2.121169037129e+04 
       2.885059252932e-02       2.114083337060e+04 
       2.899055589884e-02       2.106964863542e+04 
       2.913080517364e-02       2.099827324395e+04 
       2.927134720701e-02       2.092683463174e+04 
       2.941218904412e-02       2.085535304505e+04 
       2.955333792845e-02       2.078383784769e+04 
       2.969480130856e-02       2.071225595229e+04 
       2.983658684514e-02       2.064067288145e+04 
       2.997870241833e-02       2.056871294564e+04 
       3.012115613539e-02       2.049698376348e+04 
       3.026395633868e-02       2.042500710124e+04 
       3.040711161401e-02       2.035315670744e+04 
       3.055063079932e-02       2.028086568608e+04 
       3.069452299381e-02       2.020908133037e+04 
       3.083879756743e-02       2.013670172446e+04 
       3.098346417079e-02       2.006467416979e+04 
       3.112853274560e-02       1.999248196729e+04 
       3.127401353551e-02       1.992027049930e+04 
       3.141991709750e-02       1.984799917836e+04 
       3.156625431380e-02       1.977576772488e+04 
       3.171303640436e-02       1.970361891772e+04 
       3.186027493994e-02       1.963127279671e+04 
       3.200798185584e-02       1.955901513051e+04 
       3.215616946627e-02       1.948678521933e+04 
       3.230485047946e-02       1.941445852726e+04 
       3.245403801351e-02       1.934235230608e+04 
       3.260374561304e-02       1.926997005028e+04 
       3.275398726672e-02       1.919769435408e+04 
       3.290477742563e-02       1.912550975282e+04 
       3.305613102266e-02       1.905330445301e+04 
       3.320806349285e-02       1.898103172818e+04 
       3.336059079488e-02       1.890891725826e+04 
       3.351372943368e-02       1.883697395949e+04 
       3.366749648423e-02       1.876459400184e+04 
       3.382190961674e-02       1.869252541063e+04 
       3.397698712319e-02       1.862039259775e+04 
       3.413274794531e-02       1.854834183544e+04 
       3.428921170421e-02       1.847628938733e+04 
       3.444639873173e-02       1.840428725595e+04 
       3.460433010347e-02       1.833229596648e+04 
       3.476302767394e-02       1.826038721114e+04 
       3.492251411361e-02       1.818844729759e+04 
       3.508281294835e-02       1.811655297437e+04 
       3.524394860114e-02       1.804466410443e+04 
       3.540594643638e-02       1.797285910698e+04 
       3.556883280701e-02       1.790102324757e+04 
       3.573263510446e-02       1.782934873585e+04 
       3.589738181195e-02       1.775746968287e+04 
       3.606310256106e-02       1.768571036507e+04 
       3.622982819214e-02       1.761400207636e+04 
       3.639759081862e-02       1.754233056544e+04 
       3.656642389565e-02       1.747067040335e+04 
       3.673636229341e-02       1.739899507926e+04 
       3.690744237546e-02       1.732754435787e+04 
       3.707970208257e-02       1.725571011314e+04 
       3.725318102238e-02       1.718410124363e+04 
       3.742792056563e-02       1.711246468565e+04 
       3.760396394925e-02       1.704081881519e+04 
       3.778135638707e-02       1.696917628606e+04 
       3.796014518887e-02       1.689758208323e+04 
       3.814037988836e-02       1.682603777524e+04 
       3.832211238103e-02       1.675425247103e+04 
       3.850539707278e-02       1.668251797964e+04 
       3.869029104031e-02       1.661083358449e+04 
       3.887685420438e-02       1.653909842943e+04 
       3.906514951726e-02       1.646740309988e+04 
       3.925524316571e-02       1.639556635397e+04 
       3.944720479105e-02       1.632364433815e+04 
       3.964110772814e-02       1.625168381545e+04 
       3.983702926508e-02       1.617961272951e+04 
       4.003505092599e-02       1.610754510919e+04 
       4.023525877910e-02       1.603568992316e+04 
       4.043774377324e-02       1.596312687572e+04 
       4.064260210551e-02       1.589059167512e+04 
       4.084993562392e-02       1.581817203821e+04 
       4.105985226879e-02       1.574542665054e+04 
       4.127246655767e-02       1.567268755913e+04 
       4.148790011869e-02       1.559970601745e+04 
       4.170628227843e-02       1.552677754786e+04 
       4.192775071083e-02       1.545310631246e+04 
       4.215245215496e-02       1.538002322796e+04 
       4.238054321046e-02       1.530584660170e+04 
       4.261219122066e-02       1.523183709653e+04 
       4.284757525521e-02       1.515741656377e+04 
       4.308688720573e-02       1.508300154300e+04 
       4.333033301013e-02       1.500831175919e+04 
       4.357813402385e-02       1.493279943932e+04 
       4.383052855940e-02       1.485728833871e+04 
       4.408777361896e-02       1.478138807080e+04 
       4.435014684945e-02       1.470483104457e+04 
       4.461794875438e-02       1.462796746325e+04 
       4.489150520318e-02       1.455079925986e+04 
       4.517117028640e-02       1.447283470883e+04 
       4.545732957390e-02       1.439407492808e+04 
       4.575040384488e-02       1.431525787504e+04 
       4.605085337176e-02       1.423544368424e+04 
       4.635918285692e-02       1.415495858464e+04 
       4.667594714182e-02       1.407383418231e+04 
       4.700175783356e-02       1.399156204652e+04 
       4.733729102576e-02       1.390862728125e+04 
       4.768329633000e-02       1.382438982090e+04 
       4.804060748382e-02       1.373916559423e+04 
       4.841015486355e-02       1.365287023252e+04 
       4.879298030905e-02       1.356532115828e+04 
       4.919025476721e-02       1.347614513697e+04 
       4.960329938772e-02       1.338546552972e+04 
       5.003361086626e-02       1.329270259878e+04 
       5.048289203609e-02       1.319844482182e+04 
       5.095308897100e-02       1.310205829241e+04 
       5.144643619608e-02       1.300306055892e+04 
       5.196551202276e-02       1.290148523579e+04 
       5.251330654791e-02       1.279704988824e+04 
       5.309330549416e-02       1.268928941246e+04 
       5.370959381280e-02       1.257748844003e+04 
       5.436698377443e-02       1.246106960256e+04 
       5.507117299492e-02       1.233980568554e+04 
       5.582893815658e-02       1.221323294052e+04 
       5.664836937832e-02       1.207884583499e+04 
       5.753914683768e-02       1.193725031568e+04 
       5.851285261772e-02       1.178542318180e+04 
       5.958329191573e-02       1.162171660369e+04 
       6.076676062385e-02       1.144445080415e+04 
