# Matter power spectrum P(k) at redshift z=0
# for k=1.01037e-05 to 0.606367 h/Mpc,
# number of wavenumbers equal to 561
#    1:k (h/Mpc)              2:P (Mpc/h)^3        
       1.010368080516e-05       5.812623963689e+01 
       2.257321538200e-05       1.262065013950e+02 
       3.508381927235e-05       1.930981137754e+02 
       4.766703270551e-05       2.595000024172e+02 
       6.035488480552e-05       3.258054649413e+02 
       7.318016129783e-05       3.923062374912e+02 
       8.617668025695e-05       4.592496127754e+02 
       9.937957934958e-05       5.268616310846e+02 
       1.128256180546e-04       5.953587480292e+02 
       1.265534983725e-04       6.649549176866e+02 
       1.406042075496e-04       7.358662639409e+02 
       1.550213863180e-04       8.083147249407e+02 
       1.698517260414e-04       8.825309873216e+02 
       1.851453979300e-04       9.587571128535e+02 
       2.009565170580e-04       1.037249028695e+03 
       2.173436432202e-04       1.118278841602e+03 
       2.343703195657e-04       1.202137178222e+03 
       2.521056483199e-04       1.289135468110e+03 
       2.706249005562e-04       1.379608170332e+03 
       2.900101536887e-04       1.473914908005e+03 
       3.103509458647e-04       1.572442449665e+03 
       3.317449304485e-04       1.675606437596e+03 
       3.542985060144e-04       1.783852691257e+03 
       3.781273874522e-04       1.897657936728e+03 
       4.033570718071e-04       2.017529682146e+03 
       4.301231384525e-04       2.144004964078e+03 
       4.585713076803e-04       2.277647642488e+03 
       4.888571660127e-04       2.419043804351e+03 
       5.211454526372e-04       2.568794944985e+03 
       5.556087926552e-04       2.727508493105e+03 
       5.924257638840e-04       2.895785434959e+03 
       6.317782003364e-04       3.074204911940e+03 
       6.738476730280e-04       3.263305941062e+03 
       7.188111519332e-04       3.463566735922e+03 
       7.668359426485e-04       3.675382637379e+03 
       8.180741023330e-04       3.899043985754e+03 
       8.726566582324e-04       4.134715668512e+03 
       9.306880566185e-04       4.382420329203e+03 
       9.922413332371e-04       4.642027133074e+03 
       1.057354493118e-03       4.913247484390e+03 
       1.126028503575e-03       5.195638518610e+03 
       1.198227143969e-03       5.488614335956e+03 
       1.273878745106e-03       5.791463926846e+03 
       1.352879631356e-03       6.103343203964e+03 
       1.435098894542e-03       6.423376276256e+03 
       1.520384014643e-03       6.750636483136e+03 
       1.608566812682e-03       7.084159153081e+03 
       1.699469268221e-03       7.422978103912e+03 
       1.792908834689e-03       7.766145541669e+03 
       1.888703010791e-03       8.112747733623e+03 
       1.986673049347e-03       8.461918081185e+03 
       2.086646787797e-03       8.812844941762e+03 
       2.188460658965e-03       9.164778209893e+03 
       2.291960985850e-03       9.517030269523e+03 
       2.397004684559e-03       9.868977233104e+03 
       2.503459501636e-03       1.022005660046e+04 
       2.611203902445e-03       1.056976525302e+04 
       2.720126711424e-03       1.091765496847e+04 
       2.830126587067e-03       1.126332945195e+04 
       2.941111396786e-03       1.160643864479e+04 
       3.052997541042e-03       1.194667593333e+04 
       3.165709262737e-03       1.228377354348e+04 
       3.279177967095e-03       1.261750023350e+04 
       3.393341568802e-03       1.294765139953e+04 
       3.508143876860e-03       1.327405293651e+04 
       3.623534022906e-03       1.359655717976e+04 
       3.739465935422e-03       1.391503482734e+04 
       3.855897859987e-03       1.422937637620e+04 
       3.972791924165e-03       1.453949357698e+04 
       4.090113744704e-03       1.484531284377e+04 
       4.207832074165e-03       1.514676638629e+04 
       4.325918483835e-03       1.544381501035e+04 
       4.444347079736e-03       1.573641301217e+04 
       4.563094248607e-03       1.602452787977e+04 
       4.682138430870e-03       1.630814406889e+04 
       4.801459917812e-03       1.658724785309e+04 
       4.921040670417e-03       1.686186180071e+04 
       5.040864157515e-03       1.713196197514e+04 
       5.160915211140e-03       1.739755301052e+04 
       5.281179897193e-03       1.765866104239e+04 
       5.401645399727e-03       1.791528525361e+04 
       5.522299917326e-03       1.816744848826e+04 
       5.643132570237e-03       1.841517457052e+04 
       5.764133317064e-03       1.865848475987e+04 
       5.885292879962e-03       1.889740156543e+04 
       6.006602677388e-03       1.913196081919e+04 
       6.128054763589e-03       1.936218473443e+04 
       6.249641774085e-03       1.958810729261e+04 
       6.371356876501e-03       1.980976577315e+04 
       6.493193726162e-03       2.002718696547e+04 
       6.615146425965e-03       2.024041412804e+04 
       6.737209490048e-03       2.044947864684e+04 
       6.859377810883e-03       2.065441519638e+04 
       6.981646629413e-03       2.085526542954e+04 
       7.104011507943e-03       2.105206591688e+04 
       7.226468305483e-03       2.124485374279e+04 
       7.349013155319e-03       2.143367392659e+04 
       7.471642444556e-03       2.161856762927e+04 
       7.594352795478e-03       2.179956808126e+04 
       7.717141048514e-03       2.197668874368e+04 
       7.840004246670e-03       2.215001905422e+04 
       7.962939621285e-03       2.231957603508e+04 
       8.085944578984e-03       2.248540364467e+04 
       8.209016689716e-03       2.264753480831e+04 
       8.332153675772e-03       2.280600735576e+04 
       8.455353401701e-03       2.296086948559e+04 
       8.578613865040e-03       2.311214722039e+04 
       8.701933187777e-03       2.325988481665e+04 
       8.825309608494e-03       2.340413406709e+04 
       8.948741475120e-03       2.354494514697e+04 
       9.072227238249e-03       2.368230402717e+04 
       9.195765444967e-03       2.381627355129e+04 
       9.319354733151e-03       2.394688059129e+04 
       9.442993826195e-03       2.407420507464e+04 
       9.566681528135e-03       2.419826549599e+04 
       9.690416719126e-03       2.431907083117e+04 
       9.814198351262e-03       2.443669498202e+04 
       9.938025444694e-03       2.455117895534e+04 
       1.006189708403e-02       2.466250032794e+04 
       1.018581241500e-02       2.477074852190e+04 
       1.030977064134e-02       2.487595395516e+04 
       1.043377102194e-02       2.497814089325e+04 
       1.055781286812e-02       2.507733881119e+04 
       1.068189554121e-02       2.517360220422e+04 
       1.080601845014e-02       2.526692654500e+04 
       1.093018104939e-02       2.535737898904e+04 
       1.105438283691e-02       2.544497527782e+04 
       1.117862335227e-02       2.552977273559e+04 
       1.130290217496e-02       2.561182872545e+04 
       1.142721892273e-02       2.569109468290e+04 
       1.155157325011e-02       2.576761200713e+04 
       1.167596484699e-02       2.584152203007e+04 
       1.180039343737e-02       2.591275747584e+04 
       1.192485877805e-02       2.598133236616e+04 
       1.204936065761e-02       2.604738547015e+04 
       1.217389889527e-02       2.611087880280e+04 
       1.229847334000e-02       2.617182727424e+04 
       1.242308386954e-02       2.623026502488e+04 
       1.254773038959e-02       2.628629544056e+04 
       1.267241283306e-02       2.633988487084e+04 
       1.279713115930e-02       2.639098498628e+04 
       1.292188535346e-02       2.643980328024e+04 
       1.304667542588e-02       2.648618739994e+04 
       1.317150141151e-02       2.653034159012e+04 
       1.329636336937e-02       2.657215988939e+04 
       1.342126138213e-02       2.661176586610e+04 
       1.354619555561e-02       2.664908966549e+04 
       1.367116601840e-02       2.668424199144e+04 
       1.379617292152e-02       2.671718028501e+04 
       1.392121643807e-02       2.674801381657e+04 
       1.404629676292e-02       2.677671457268e+04 
       1.417141411248e-02       2.680333080612e+04 
       1.429656872447e-02       2.682792152952e+04 
       1.442176085768e-02       2.685039066322e+04 
       1.454699079180e-02       2.687094477495e+04 
       1.467225882732e-02       2.688946378459e+04 
       1.479756528532e-02       2.690602429156e+04 
       1.492291050747e-02       2.692068867540e+04 
       1.504829485585e-02       2.693296916379e+04 
       1.517371871299e-02       2.694410943509e+04 
       1.529918248177e-02       2.695300615438e+04 
       1.542468658546e-02       2.696026155894e+04 
       1.555023146766e-02       2.696549901001e+04 
       1.567581759244e-02       2.696903091593e+04 
       1.580144544427e-02       2.697079483913e+04 
       1.592711552817e-02       2.697092855334e+04 
       1.605282836978e-02       2.696910773694e+04 
       1.617858451544e-02       2.696575122278e+04 
       1.630438453236e-02       2.696075324640e+04 
       1.643022900870e-02       2.695402270520e+04 
       1.655611855379e-02       2.694575626593e+04 
       1.668205379827e-02       2.693586730572e+04 
       1.680803539431e-02       2.692428888386e+04 
       1.693406401577e-02       2.691137632083e+04 
       1.706014035850e-02       2.689686297910e+04 
       1.718626514052e-02       2.688065249550e+04 
       1.731243910230e-02       2.686296645812e+04 
       1.743866300705e-02       2.684396335078e+04 
       1.756493764100e-02       2.682370145835e+04 
       1.769126381372e-02       2.680189668523e+04 
       1.781764235841e-02       2.677842972207e+04 
       1.794407413230e-02       2.675392105206e+04 
       1.807056001695e-02       2.672798585773e+04 
       1.819710091867e-02       2.670073666392e+04 
       1.832369776889e-02       2.667200462439e+04 
       1.845035152458e-02       2.664217967441e+04 
       1.857706316865e-02       2.661099193477e+04 
       1.870383371044e-02       2.657853000655e+04 
       1.883066418614e-02       2.654486534024e+04 
       1.895755565928e-02       2.650994276435e+04 
       1.908450922124e-02       2.647391416677e+04 
       1.921152599176e-02       2.643661147941e+04 
       1.933860711948e-02       2.639820854245e+04 
       1.946575378246e-02       2.635873798924e+04 
       1.959296718880e-02       2.631803352641e+04 
       1.972024857720e-02       2.627611292784e+04 
       1.984759921761e-02       2.623347428230e+04 
       1.997502041182e-02       2.618946060519e+04 
       2.010251349412e-02       2.614456277825e+04 
       2.023007983203e-02       2.609879104425e+04 
       2.035772082694e-02       2.605177439844e+04 
       2.048543791484e-02       2.600376715484e+04 
       2.061323256712e-02       2.595494532591e+04 
       2.074110629125e-02       2.590514439228e+04 
       2.086906063166e-02       2.585434148976e+04 
       2.099709717051e-02       2.580275423552e+04 
       2.112521752854e-02       2.575020511590e+04 
       2.125342336596e-02       2.569666047149e+04 
       2.138171638332e-02       2.564234774974e+04 
       2.151009832250e-02       2.558723504344e+04 
       2.163857096757e-02       2.553114778999e+04 
       2.176713614587e-02       2.547418869011e+04 
       2.189579572899e-02       2.541682564245e+04 
       2.202455163379e-02       2.535848549285e+04 
       2.215340582354e-02       2.529929824633e+04 
       2.228236030901e-02       2.523951461422e+04 
       2.241141714961e-02       2.517878833523e+04 
       2.254057845461e-02       2.511745408342e+04 
       2.266984638433e-02       2.505543293630e+04 
       2.279922315145e-02       2.499269562117e+04 
       2.292871102225e-02       2.492940168148e+04 
       2.305831231804e-02       2.486545809095e+04 
       2.318802941649e-02       2.480075416784e+04 
       2.331786475307e-02       2.473546531903e+04 
       2.344782082255e-02       2.466946581590e+04 
       2.357790018053e-02       2.460306311394e+04 
       2.370810544499e-02       2.453586116632e+04 
       2.383843929794e-02       2.446842025614e+04 
       2.396890448713e-02       2.440030135007e+04 
       2.409950382770e-02       2.433139371946e+04 
       2.423024020408e-02       2.426224844897e+04 
       2.436111657178e-02       2.419253738750e+04 
       2.449213595930e-02       2.412225008259e+04 
       2.462330147015e-02       2.405159164793e+04 
       2.475461628488e-02       2.398023285380e+04 
       2.488608366318e-02       2.390855772782e+04 
       2.501770694607e-02       2.383633842680e+04 
       2.514948955820e-02       2.376387134368e+04 
       2.528143501013e-02       2.369081416819e+04 
       2.541354690079e-02       2.361751948030e+04 
       2.554582891997e-02       2.354388896007e+04 
       2.567828485094e-02       2.346961342338e+04 
       2.581091857308e-02       2.339506774976e+04 
       2.594373406471e-02       2.332010282958e+04 
       2.607673540593e-02       2.324480276967e+04 
       2.620992678163e-02       2.316919568674e+04 
       2.634331248457e-02       2.309336665414e+04 
       2.647689691855e-02       2.301712042510e+04 
       2.661068460180e-02       2.294056615147e+04 
       2.674468017034e-02       2.286373518956e+04 
       2.687888838161e-02       2.278663594106e+04 
       2.701331411813e-02       2.270926193383e+04 
       2.714796239136e-02       2.263160546258e+04 
       2.728283834571e-02       2.255387884748e+04 
       2.741794726263e-02       2.247554930356e+04 
       2.755329456495e-02       2.239727485961e+04 
       2.768888582134e-02       2.231862252648e+04 
       2.782472675093e-02       2.223972934266e+04 
       2.796082322816e-02       2.216082409828e+04 
       2.809718128778e-02       2.208183870511e+04 
       2.823380713007e-02       2.200220829884e+04 
       2.837070712629e-02       2.192264049968e+04 
       2.850788782427e-02       2.184293598833e+04 
       2.864535595436e-02       2.176295539965e+04 
       2.878311843551e-02       2.168284799063e+04 
       2.892118238166e-02       2.160259890057e+04 
       2.905955510838e-02       2.152242025779e+04 
       2.919824413983e-02       2.144186965206e+04 
       2.933725721594e-02       2.136123050369e+04 
       2.947660229996e-02       2.128047605444e+04 
       2.961628758635e-02       2.119988020306e+04 
       2.975632150896e-02       2.111894281232e+04 
       2.989671274962e-02       2.103800229696e+04 
       3.003747024709e-02       2.095684941068e+04 
       3.017860320642e-02       2.087575366533e+04 
       3.032012110875e-02       2.079443213109e+04 
       3.046203372151e-02       2.071301706874e+04 
       3.060435110917e-02       2.063170600127e+04 
       3.074708364443e-02       2.055035761653e+04 
       3.089024201994e-02       2.046876880959e+04 
       3.103383726064e-02       2.038718902811e+04 
       3.117788073664e-02       2.030563059822e+04 
       3.132238417669e-02       2.022414657775e+04 
       3.146735968243e-02       2.014265135929e+04 
       3.161281974320e-02       2.006097928561e+04 
       3.175877725174e-02       1.997912825730e+04 
       3.190524552053e-02       1.989779163713e+04 
       3.205223829909e-02       1.981596669490e+04 
       3.219976979213e-02       1.973434478246e+04 
       3.234785467859e-02       1.965255904462e+04 
       3.249650813176e-02       1.957089262868e+04 
       3.264574584045e-02       1.948924933067e+04 
       3.279558403127e-02       1.940763081952e+04 
       3.294603949213e-02       1.932596895221e+04 
       3.309712959705e-02       1.924432695317e+04 
       3.324887233236e-02       1.916276802711e+04 
       3.340128632428e-02       1.908135740235e+04 
       3.355439086819e-02       1.899987437033e+04 
       3.370820595950e-02       1.891831619244e+04 
       3.386275232632e-02       1.883682596897e+04 
       3.401805146405e-02       1.875563335916e+04 
       3.417412567209e-02       1.867414513902e+04 
       3.433099809263e-02       1.859277403843e+04 
       3.448869275188e-02       1.851159907025e+04 
       3.464723460385e-02       1.843039891782e+04 
       3.480664957683e-02       1.834909740437e+04 
       3.496696462275e-02       1.826789565137e+04 
       3.512820776978e-02       1.818682747039e+04 
       3.529040817827e-02       1.810603248789e+04 
       3.545359620037e-02       1.802478992173e+04 
       3.561780344360e-02       1.794387404167e+04 
       3.578306283867e-02       1.786313366489e+04 
       3.594940871194e-02       1.778207749409e+04 
       3.611687686286e-02       1.770125670371e+04 
       3.628550464679e-02       1.762073621722e+04 
       3.645533106376e-02       1.753985880700e+04 
       3.662639685350e-02       1.745927017732e+04 
       3.679874459748e-02       1.737864264422e+04 
       3.697241882842e-02       1.729806940931e+04 
       3.714746614800e-02       1.721766358140e+04 
       3.732393535354e-02       1.713686514148e+04 
       3.750187757443e-02       1.705639206986e+04 
       3.768134641925e-02       1.697599403970e+04 
       3.786239813449e-02       1.689555981430e+04 
       3.804509177619e-02       1.681540481170e+04 
       3.822948939553e-02       1.673479047021e+04 
       3.841565623990e-02       1.665465843840e+04 
       3.860366097098e-02       1.657438776398e+04 
       3.879357590147e-02       1.649397565474e+04 
       3.898547725257e-02       1.641374153169e+04 
       3.917944543428e-02       1.633345141163e+04 
       3.937556535094e-02       1.625321288707e+04 
       3.957392673493e-02       1.617257992821e+04 
       3.977462451145e-02       1.609248108957e+04 
       3.997775919804e-02       1.601182248603e+04 
       4.018343734274e-02       1.593165439436e+04 
       4.039177200551e-02       1.585115140447e+04 
       4.060288328789e-02       1.577071175471e+04 
       4.081689891698e-02       1.568978450976e+04 
       4.103395489028e-02       1.560902316072e+04 
       4.125419618912e-02       1.552849494330e+04 
       4.147777756950e-02       1.544767046034e+04 
       4.170486444050e-02       1.536677283916e+04 
       4.193563384197e-02       1.528559304324e+04 
       4.217027553492e-02       1.520442845380e+04 
       4.240899322062e-02       1.512290493245e+04 
       4.265200590631e-02       1.504115471645e+04 
       4.289954943923e-02       1.495962863300e+04 
       4.315187823374e-02       1.487765340116e+04 
       4.340926722097e-02       1.479524570824e+04 
       4.367201405547e-02       1.471285841244e+04 
       4.394044161994e-02       1.463009615942e+04 
       4.421490087634e-02       1.454720733356e+04 
       4.449577412118e-02       1.446366558726e+04 
       4.478347871406e-02       1.438006127137e+04 
       4.507847136215e-02       1.429568606642e+04 
       4.538125306037e-02       1.421136713677e+04 
       4.569237480779e-02       1.412617840768e+04 
       4.601244424663e-02       1.404057761059e+04 
       4.634213340251e-02       1.395425269844e+04 
       4.668218774430e-02       1.386772181387e+04 
       4.703343683284e-02       1.378003858830e+04 
       4.739680689039e-02       1.369183486827e+04 
       4.777333570328e-02       1.360269548252e+04 
       4.816419037106e-02       1.351268919910e+04 
       4.857068854475e-02       1.342161606920e+04 
       4.899432396068e-02       1.332947336477e+04 
       4.943679728574e-02       1.323636775910e+04 
       4.990005355658e-02       1.314155564152e+04 
       5.038632783320e-02       1.304528857452e+04 
       5.089820111406e-02       1.294715103581e+04 
       5.143866908845e-02       1.284740357520e+04 
       5.201122694318e-02       1.274496931933e+04 
       5.261997418257e-02       1.263995064856e+04 
       5.326974420620e-02       1.253197951077e+04 
       5.396626405957e-02       1.242040310832e+04 
       5.471634996238e-02       1.230478690837e+04 
       5.552814315013e-02       1.218372139522e+04 
       5.641138668315e-02       1.205677702443e+04 
       5.737773423051e-02       1.192175918504e+04 
       5.844106116852e-02       1.177732966385e+04 
