# Matter power spectrum P(k) at redshift z=0
# for k=1.04564e-05 to 0.628084 h/Mpc,
# number of wavenumbers equal to 560
#    1:k (h/Mpc)              2:P (Mpc/h)^3        
       1.045636895265e-05       5.098363524307e+01 
       2.335677266242e-05       1.106795644897e+02 
       3.630265496451e-05       1.693501070851e+02 
       4.932895331925e-05       2.276195826801e+02 
       6.247118456451e-05       2.858446622428e+02 
       7.576576256288e-05       3.442935289745e+02 
       8.925032603220e-05       4.031961273353e+02 
       1.029640809318e-04       4.627647213144e+02 
       1.169481618106e-04       5.232044843555e+02 
       1.312460165557e-04       5.847198921174e+02 
       1.459038189883e-04       6.475192027266e+02 
       1.609709136881e-04       7.118179239474e+02 
       1.765002972497e-04       7.778418118772e+02 
       1.925491397914e-04       8.458295841986e+02 
       2.091793498687e-04       9.160355556998e+02 
       2.264581848421e-04       9.887322256952e+02 
       2.444589070512e-04       1.064212881219e+03 
       2.632614836233e-04       1.142794224573e+03 
       2.829533241191e-04       1.224819010568e+03 
       3.036300451576e-04       1.310658620417e+03 
       3.253962442793e-04       1.400715547287e+03 
       3.483662561870e-04       1.495425589859e+03 
       3.726648527746e-04       1.595259675804e+03 
       3.984278337578e-04       1.700724993028e+03 
       4.258024372900e-04       1.812365189583e+03 
       4.549474802467e-04       1.930759258740e+03 
       4.860331173007e-04       2.056518625934e+03 
       5.192400891269e-04       2.190282024111e+03 
       5.547583173024e-04       2.332707547796e+03 
       5.927847027313e-04       2.484461420384e+03 
       6.335200032596e-04       2.646203196011e+03 
       6.771647126097e-04       2.818567110925e+03 
       7.239139432500e-04       3.002139925093e+03 
       7.739514318284e-04       3.197435929939e+03 
       8.274429300770e-04       3.404870430940e+03 
       8.845293976205e-04       3.624733581412e+03 
       9.453205450956e-04       3.857166895985e+03 
       1.009889348932e-03       4.102144946382e+03 
       1.078268139489e-03       4.359464666055e+03 
       1.150446735765e-03       4.628743872114e+03 
       1.226372874403e-03       4.909429657823e+03 
       1.305954899341e-03       5.200816259112e+03 
       1.389066401230e-03       5.502049317424e+03 
       1.475552282067e-03       5.812196460936e+03 
       1.565235609962e-03       6.130281702336e+03 
       1.657924630627e-03       6.455276053792e+03 
       1.753419396201e-03       6.786145901076e+03 
       1.851517621368e-03       7.121875646266e+03 
       1.952019541460e-03       7.461489767093e+03 
       2.054731695756e-03       7.804064437348e+03 
       2.159469673370e-03       8.148737894218e+03 
       2.266059933400e-03       8.494716310966e+03 
       2.374340849213e-03       8.841275676989e+03 
       2.484163136936e-03       9.187760826590e+03 
       2.595389819811e-03       9.533583315302e+03 
       2.707895861267e-03       9.878218746489e+03 
       2.821567576459e-03       1.022120108928e+04 
       2.936301908748e-03       1.056211855549e+04 
       3.052005636486e-03       1.090060970288e+04 
       3.168594557566e-03       1.123635715015e+04 
       3.285992684738e-03       1.156908512864e+04 
       3.404131473467e-03       1.189855473304e+04 
       3.522949095719e-03       1.222455598621e+04 
       3.642389766920e-03       1.254691158838e+04 
       3.762403129034e-03       1.286546935767e+04 
       3.882943689751e-03       1.318009769981e+04 
       4.003970315887e-03       1.349068867287e+04 
       4.125445777927e-03       1.379714894451e+04 
       4.247336341979e-03       1.409940447887e+04 
       4.369611405165e-03       1.439739231549e+04 
       4.492243170419e-03       1.469106369525e+04 
       4.615206356778e-03       1.498037938906e+04 
       4.738477941502e-03       1.526530209082e+04 
       4.862036930582e-03       1.554579405264e+04 
       4.985864154538e-03       1.582191275744e+04 
       5.109942086649e-03       1.609355867048e+04 
       5.234254681105e-03       1.636081249725e+04 
       5.358787228777e-03       1.662372140367e+04 
       5.483526228614e-03       1.688220116979e+04 
       5.608459272849e-03       1.713549038731e+04 
       5.733574944449e-03       1.738519000593e+04 
       5.858862725395e-03       1.763054718703e+04 
       5.984312914559e-03       1.787153860823e+04 
       6.109916554090e-03       1.810820644959e+04 
       6.235665363355e-03       1.834067571695e+04 
       6.361551679577e-03       1.856900585641e+04 
       6.487568404427e-03       1.879310560505e+04 
       6.613708955931e-03       1.901303115551e+04 
       6.739967225075e-03       1.922872082158e+04 
       6.866337536644e-03       1.944021206428e+04 
       6.992814613796e-03       1.964763507579e+04 
       7.119393546008e-03       1.985104153143e+04 
       7.246069760018e-03       2.005048889036e+04 
       7.372838993463e-03       2.024593322272e+04 
       7.499697270928e-03       2.043792743918e+04 
       7.626640882161e-03       2.062557972367e+04 
       7.753666362241e-03       2.080938237649e+04 
       7.880770473497e-03       2.098938842430e+04 
       8.007950189003e-03       2.116545134998e+04 
       8.135202677511e-03       2.133793554752e+04 
       8.262525289660e-03       2.150685286469e+04 
       8.389915545361e-03       2.167193212590e+04 
       8.517371122225e-03       2.183347190075e+04 
       8.644889844960e-03       2.199144505074e+04 
       8.772469675630e-03       2.214564276914e+04 
       8.900108704699e-03       2.229661551309e+04 
       9.027805142801e-03       2.244388957775e+04 
       9.155557313158e-03       2.258808164878e+04 
       9.283363644594e-03       2.272861035536e+04 
       9.411222665092e-03       2.286600854905e+04 
       9.539132995852e-03       2.300003211598e+04 
       9.667093345797e-03       2.313070846723e+04 
       9.795102506498e-03       2.325828603898e+04 
       9.923159347480e-03       2.338247417994e+04 
       1.005126281188e-02       2.350356885504e+04 
       1.017941191240e-02       2.362151423478e+04 
       1.030760572764e-02       2.373648906444e+04 
       1.043584339855e-02       2.384829226870e+04 
       1.056412412531e-02       2.395711454192e+04 
       1.069244716428e-02       2.406214603000e+04 
       1.082081182530e-02       2.416568318841e+04 
       1.094921746906e-02       2.426567154437e+04 
       1.107766350478e-02       2.436270374400e+04 
       1.120614938792e-02       2.445664830371e+04 
       1.133467461819e-02       2.454829177129e+04 
       1.146323873758e-02       2.463685053760e+04 
       1.159184132859e-02       2.472277749317e+04 
       1.172048201258e-02       2.480529488995e+04 
       1.184916044821e-02       2.488628330957e+04 
       1.197787633005e-02       2.496362718118e+04 
       1.210662938717e-02       2.503821042892e+04 
       1.223541938196e-02       2.511167728099e+04 
       1.236424610896e-02       2.518156661667e+04 
       1.249310939377e-02       2.524908854570e+04 
       1.262200909207e-02       2.531399387688e+04 
       1.275094508870e-02       2.537643064428e+04 
       1.287991729680e-02       2.543623982810e+04 
       1.300892565702e-02       2.549399278062e+04 
       1.313797013676e-02       2.554916317794e+04 
       1.326705072952e-02       2.560103649110e+04 
       1.339616745427e-02       2.565220812276e+04 
       1.352532035487e-02       2.570058745215e+04 
       1.365450949952e-02       2.574577277693e+04 
       1.378373498031e-02       2.578942821571e+04 
       1.391299691275e-02       2.583163931042e+04 
       1.404229543538e-02       2.587047014774e+04 
       1.417163070937e-02       2.590802368174e+04 
       1.430100291825e-02       2.594216056181e+04 
       1.443041226755e-02       2.597549779916e+04 
       1.455985898457e-02       2.600557005042e+04 
       1.468934331813e-02       2.603521542496e+04 
       1.481886553837e-02       2.606109027444e+04 
       1.494842593658e-02       2.608653377534e+04 
       1.507802482503e-02       2.610924914658e+04 
       1.520766253687e-02       2.612984145556e+04 
       1.533733942602e-02       2.614868630379e+04 
       1.546705586708e-02       2.616459614510e+04 
       1.559681225531e-02       2.617978093170e+04 
       1.572660900657e-02       2.619372592856e+04 
       1.585644655731e-02       2.620405364704e+04 
       1.598632536463e-02       2.621363268880e+04 
       1.611624590624e-02       2.622137789622e+04 
       1.624620868060e-02       2.622733597817e+04 
       1.637621420689e-02       2.623149576732e+04 
       1.650626302521e-02       2.623405281954e+04 
       1.663635569659e-02       2.623476919312e+04 
       1.676649280320e-02       2.623440674377e+04 
       1.689667494844e-02       2.623151548826e+04 
       1.702690275713e-02       2.622737304645e+04 
       1.715717687570e-02       2.622162043261e+04 
       1.728749797235e-02       2.621436218462e+04 
       1.741786673730e-02       2.620639150220e+04 
       1.754828388303e-02       2.619604332073e+04 
       1.767875014447e-02       2.618418580717e+04 
       1.780926627935e-02       2.617078460691e+04 
       1.793983306841e-02       2.615593408623e+04 
       1.807045131574e-02       2.613872161949e+04 
       1.820112184907e-02       2.612110180177e+04 
       1.833184552014e-02       2.610293091234e+04 
       1.846262320499e-02       2.608240153860e+04 
       1.859345580439e-02       2.605965939873e+04 
       1.872434424417e-02       2.603665456808e+04 
       1.885528947567e-02       2.601206266111e+04 
       1.898629247609e-02       2.598710627595e+04 
       1.911735424898e-02       2.595993218700e+04 
       1.924847582470e-02       2.593169166260e+04 
       1.937965826082e-02       2.590098628108e+04 
       1.951090264268e-02       2.587132048439e+04 
       1.964221008385e-02       2.583897822221e+04 
       1.977358172670e-02       2.580522513149e+04 
       1.990501874289e-02       2.577124478982e+04 
       2.003652233396e-02       2.573581788120e+04 
       2.016809373193e-02       2.569973549720e+04 
       2.029973419985e-02       2.566155557983e+04 
       2.043144503250e-02       2.562241655897e+04 
       2.056322755696e-02       2.558262168120e+04 
       2.069508313331e-02       2.554248922848e+04 
       2.082701315532e-02       2.550023576514e+04 
       2.095901905116e-02       2.545712458976e+04 
       2.109110228411e-02       2.541286591324e+04 
       2.122326435334e-02       2.536876271452e+04 
       2.135550679470e-02       2.532215251410e+04 
       2.148783118148e-02       2.527532003629e+04 
       2.162023912529e-02       2.522829095656e+04 
       2.175273227689e-02       2.517962635011e+04 
       2.188531232708e-02       2.513015949577e+04 
       2.201798100764e-02       2.507890602140e+04 
       2.215074009220e-02       2.502763848152e+04 
       2.228359139728e-02       2.497561799541e+04 
       2.241653678328e-02       2.492337619837e+04 
       2.254957815546e-02       2.486968001269e+04 
       2.268271746508e-02       2.481520890420e+04 
       2.281595671042e-02       2.475916369535e+04 
       2.294929793799e-02       2.470307080111e+04 
       2.308274324362e-02       2.464617501947e+04 
       2.321629477373e-02       2.458869098908e+04 
       2.334995472652e-02       2.453050483366e+04 
       2.348372535328e-02       2.447174983641e+04 
       2.361760895972e-02       2.441221043395e+04 
       2.375160790728e-02       2.435176955335e+04 
       2.388572461462e-02       2.429076553468e+04 
       2.401996155898e-02       2.422935078359e+04 
       2.415432127775e-02       2.416749623168e+04 
       2.428880636997e-02       2.410420485225e+04 
       2.442341949795e-02       2.404083320873e+04 
       2.455816338890e-02       2.397687150391e+04 
       2.469304083665e-02       2.391239119529e+04 
       2.482805470339e-02       2.384725907503e+04 
       2.496320792148e-02       2.378132178206e+04 
       2.509850349533e-02       2.371531476817e+04 
       2.523394450335e-02       2.364852064132e+04 
       2.536953409991e-02       2.358155411463e+04 
       2.550527551745e-02       2.351401632780e+04 
       2.564117206858e-02       2.344579077922e+04 
       2.577722714832e-02       2.337707872330e+04 
       2.591344423635e-02       2.330808390478e+04 
       2.604982689939e-02       2.323824884764e+04 
       2.618637879365e-02       2.316834328200e+04 
       2.632310366732e-02       2.309876827129e+04 
       2.646000536323e-02       2.302795787176e+04 
       2.659708782153e-02       2.295614346197e+04 
       2.673435508248e-02       2.288492957174e+04 
       2.687181128938e-02       2.281312556711e+04 
       2.700946069156e-02       2.274058059515e+04 
       2.714730764749e-02       2.266837814314e+04 
       2.728535662801e-02       2.259528768949e+04 
       2.742361221964e-02       2.252209579987e+04 
       2.756207912813e-02       2.244863673841e+04 
       2.770076218193e-02       2.237474324164e+04 
       2.783966633604e-02       2.230099454774e+04 
       2.797879667577e-02       2.222651353311e+04 
       2.811815842085e-02       2.215149788188e+04 
       2.825775692949e-02       2.207665847665e+04 
       2.839759770281e-02       2.200139712157e+04 
       2.853768638924e-02       2.192607383294e+04 
       2.867802878924e-02       2.185034105250e+04 
       2.881863086014e-02       2.177443659687e+04 
       2.895949872117e-02       2.169879271114e+04 
       2.910063865869e-02       2.162216631840e+04 
       2.924205713167e-02       2.154570310238e+04 
       2.938376077733e-02       2.146929133570e+04 
       2.952575641708e-02       2.139216374826e+04 
       2.966805106263e-02       2.131516356283e+04 
       2.981065192239e-02       2.123787699601e+04 
       2.995356640817e-02       2.116057695956e+04 
       3.009680214209e-02       2.108315377693e+04 
       3.024036696384e-02       2.100575267465e+04 
       3.038426893826e-02       2.092813639251e+04 
       3.052851636315e-02       2.084985884960e+04 
       3.067311777757e-02       2.077184698626e+04 
       3.081808197037e-02       2.069373853172e+04 
       3.096341798920e-02       2.061560730733e+04 
       3.110913514985e-02       2.053722227731e+04 
       3.125524304602e-02       2.045884656535e+04 
       3.140175155961e-02       2.038028087794e+04 
       3.154867087141e-02       2.030179967885e+04 
       3.169601147226e-02       2.022318614343e+04 
       3.184378417485e-02       2.014459649961e+04 
       3.199200012597e-02       2.006565104762e+04 
       3.214067081935e-02       1.998695621744e+04 
       3.228980810924e-02       1.990809247257e+04 
       3.243942422447e-02       1.982910154859e+04 
       3.258953178334e-02       1.975026673534e+04 
       3.274014380920e-02       1.967131682561e+04 
       3.289127374680e-02       1.959239782041e+04 
       3.304293547949e-02       1.951337938902e+04 
       3.319514334731e-02       1.943441341052e+04 
       3.334791216595e-02       1.935582735322e+04 
       3.350125724679e-02       1.927638303278e+04 
       3.365519441793e-02       1.919725902610e+04 
       3.380974004639e-02       1.911827967100e+04 
       3.396491106144e-02       1.903914421126e+04 
       3.412072497928e-02       1.896021185910e+04 
       3.427719992903e-02       1.888142463296e+04 
       3.443435468016e-02       1.880211991005e+04 
       3.459220867151e-02       1.872315105991e+04 
       3.475078204189e-02       1.864416765639e+04 
       3.491009566254e-02       1.856520853329e+04 
       3.507017117136e-02       1.848618955916e+04 
       3.523103100925e-02       1.840729455552e+04 
       3.539269845858e-02       1.832843354689e+04 
       3.555519768399e-02       1.824984403506e+04 
       3.571855377561e-02       1.817104272816e+04 
       3.588279279506e-02       1.809221923479e+04 
       3.604794182426e-02       1.801321637493e+04 
       3.621402901730e-02       1.793443034840e+04 
       3.638108365567e-02       1.785578916415e+04 
       3.654913620710e-02       1.777719021766e+04 
       3.671821838815e-02       1.769858606122e+04 
       3.688836323110e-02       1.761996452743e+04 
       3.705960515525e-02       1.754143923231e+04 
       3.723198004310e-02       1.746292405068e+04 
       3.740552532186e-02       1.738457540260e+04 
       3.758028005053e-02       1.730602655129e+04 
       3.775628501336e-02       1.722757728961e+04 
       3.793358281988e-02       1.714922295253e+04 
       3.811221801230e-02       1.707089099261e+04 
       3.829223718085e-02       1.699256268612e+04 
       3.847368908783e-02       1.691440987410e+04 
       3.865662480104e-02       1.683621925551e+04 
       3.884109783756e-02       1.675788128001e+04 
       3.902716431888e-02       1.667960483098e+04 
       3.921488313830e-02       1.660135394607e+04 
       3.940431614190e-02       1.652324561127e+04 
       3.959552832444e-02       1.644509563479e+04 
       3.978858804159e-02       1.636690737403e+04 
       3.998356724007e-02       1.628864848375e+04 
       4.018054170781e-02       1.621054362987e+04 
       4.037959134589e-02       1.613235137873e+04 
       4.058080046476e-02       1.605415630151e+04 
       4.078425810732e-02       1.597591250323e+04 
       4.099005840180e-02       1.589766323140e+04 
       4.119830094770e-02       1.581937166607e+04 
       4.140909123864e-02       1.574102204064e+04 
       4.162254112634e-02       1.566271190390e+04 
       4.183876933045e-02       1.558438866832e+04 
       4.205790199999e-02       1.550575575192e+04 
       4.228007333236e-02       1.542715563626e+04 
       4.250542625731e-02       1.534847443848e+04 
       4.273411319405e-02       1.527002624393e+04 
       4.296629689085e-02       1.519081827648e+04 
       4.320215135809e-02       1.511187698007e+04 
       4.344186290731e-02       1.503267611327e+04 
       4.368563131074e-02       1.495349320111e+04 
       4.393367109829e-02       1.487378587439e+04 
       4.418621301154e-02       1.479412415080e+04 
       4.444350563777e-02       1.471418585568e+04 
       4.470581725097e-02       1.463409808404e+04 
       4.497343789123e-02       1.455368608335e+04 
       4.524668172014e-02       1.447312230575e+04 
       4.552588969597e-02       1.439214130670e+04 
       4.581143262121e-02       1.431083579613e+04 
       4.610371462480e-02       1.422950079985e+04 
       4.640317715382e-02       1.414723412852e+04 
       4.671030356413e-02       1.406484509564e+04 
       4.702562441818e-02       1.398192181866e+04 
       4.734972362086e-02       1.389865740908e+04 
       4.768324555225e-02       1.381464699212e+04 
       4.802690339165e-02       1.373005647603e+04 
       4.838148887073e-02       1.364497619886e+04 
       4.874788374907e-02       1.355903060023e+04 
       4.912707337436e-02       1.347238646584e+04 
       4.952016277768e-02       1.338478466661e+04 
       4.992839586521e-02       1.329636271315e+04 
       5.035317840951e-02       1.320686542188e+04 
       5.079610572385e-02       1.311600264900e+04 
       5.125899613303e-02       1.302408281124e+04 
       5.174393164684e-02       1.293073906081e+04 
       5.225330761339e-02       1.283576265326e+04 
       5.278989359552e-02       1.273890093878e+04 
       5.335690828934e-02       1.264001414261e+04 
       5.395811199542e-02       1.253878148369e+04 
       5.459792094022e-02       1.243493513341e+04 
       5.528154855005e-02       1.232777219963e+04 
       5.601517939686e-02       1.221678201082e+04 
       5.680618150598e-02       1.210147827706e+04 
       5.766336107936e-02       1.198098053717e+04 
       5.859725854855e-02       1.185387766966e+04 
       5.962047267966e-02       1.171862007242e+04 
       6.074797401435e-02       1.157337142644e+04 
       6.199732065262e-02       1.141497079582e+04 
