# Matter power spectrum P(k) at redshift z=0
# for k=1.04564e-05 to 0.628086 h/Mpc,
# number of wavenumbers equal to 560
#    1:k (h/Mpc)              2:P (Mpc/h)^3        
       1.045636895265e-05       5.098371528148e+01 
       2.335681142925e-05       1.106798906865e+02 
       3.630273282345e-05       1.693507036809e+02 
       4.932907091132e-05       2.276204396713e+02 
       6.247134285439e-05       2.858457798764e+02 
       7.576596285165e-05       3.442949081109e+02 
       8.925056997509e-05       4.031977702430e+02 
       1.029643705613e-04       4.627666314724e+02 
       1.169484995649e-04       5.232066656634e+02 
       1.312464053140e-04       5.847223520421e+02 
       1.459042621118e-04       6.475219454379e+02 
       1.609714150697e-04       7.118209593066e+02 
       1.765008613704e-04       7.778451449807e+02 
       1.925497717868e-04       8.458332206731e+02 
       2.091800556043e-04       9.160395025517e+02 
       2.264589709999e-04       9.887364868200e+02 
       2.444597812274e-04       1.064217455438e+03 
       2.632624544378e-04       1.142799110059e+03 
       2.829544013371e-04       1.224824193440e+03 
       3.036312398239e-04       1.310664083776e+03 
       3.253975688631e-04       1.400721254037e+03 
       3.483677247358e-04       1.495431490187e+03 
       3.726664810739e-04       1.595265693140e+03 
       3.984296394912e-04       1.700731017263e+03 
       4.258044401907e-04       1.812371064992e+03 
       4.549497022303e-04       1.930764763906e+03 
       4.860355825643e-04       2.056523469861e+03 
       5.192428241957e-04       2.190285807668e+03 
       5.547613510024e-04       2.332709728322e+03 
       5.927880660636e-04       2.484461303838e+03 
       6.335237291520e-04       2.646199869001e+03 
       6.771688355254e-04       2.818559407905e+03 
       7.239184986396e-04       3.002126389083e+03 
       7.739564554272e-04       3.197414774873e+03 
       8.274484570673e-04       3.404839524302e+03 
       8.845354617007e-04       3.624690455817e+03 
       9.453271775186e-04       3.857108781079e+03 
       1.009896577592e-03       4.102068889477e+03 
       1.078275988141e-03       4.359367685225e+03 
       1.150455223448e-03       4.628623128853e+03 
       1.226382015123e-03       4.909282750845e+03 
       1.305964702030e-03       5.200641430760e+03 
       1.389076869971e-03       5.501845719556e+03 
       1.475563416532e-03       5.811964274316e+03 
       1.565247406009e-03       6.130022284342e+03 
       1.657937080982e-03       6.454991807091e+03 
       1.753432491162e-03       6.785839912091e+03 
       1.851531349478e-03       7.121552577616e+03 
       1.952033890108e-03       7.461153839558e+03 
       2.054746651695e-03       7.803720075647e+03 
       2.159485223135e-03       8.148389180086e+03 
       2.266076063638e-03       8.494366268328e+03 
       2.374357546924e-03       8.840927553819e+03 
       2.484180389645e-03       9.187415976870e+03 
       2.595407615678e-03       9.533242329357e+03 
       2.707914189156e-03       9.877881915035e+03 
       2.821586425964e-03       1.022086763358e+04 
       2.936321270195e-03       1.056178851868e+04 
       3.052025500922e-03       1.090028326810e+04 
       3.168614916728e-03       1.123603536665e+04 
       3.286013531018e-03       1.156876970368e+04 
       3.404152799869e-03       1.189824893282e+04 
       3.522970895819e-03       1.222426392896e+04 
       3.642412034823e-03       1.254663841538e+04 
       3.762425859332e-03       1.286522106834e+04 
       3.882966877479e-03       1.317988064318e+04 
       4.003993956493e-03       1.349050908263e+04 
       4.125469867228e-03       1.379701302505e+04 
       4.247360876134e-03       1.409931706539e+04 
       4.369636380643e-03       1.439735968281e+04 
       4.492268583971e-03       1.469108950910e+04 
       4.615232205413e-03       1.498046677551e+04 
       4.738504222463e-03       1.526545391431e+04 
       4.862063641328e-03       1.554602155557e+04 
       4.985891292719e-03       1.582219703817e+04 
       5.109969650096e-03       1.609393473532e+04 
       5.234282667809e-03       1.636125614570e+04 
       5.358815636880e-03       1.662422701539e+04 
       5.483555056391e-03       1.688277177523e+04 
       5.608488518701e-03       1.713646435622e+04 
       5.733604606891e-03       1.738673710543e+04 
       5.858892803046e-03       1.763209153258e+04 
       5.984343406132e-03       1.787276165897e+04 
       6.109947458390e-03       1.810952277541e+04 
       6.235696679267e-03       1.834200717360e+04 
       6.361583406059e-03       1.857025609145e+04 
       6.487600540509e-03       1.879420722663e+04 
       6.613741500703e-03       1.901408728269e+04 
       6.740000177690e-03       1.922974941127e+04 
       6.866370896308e-03       1.944127184297e+04 
       6.992848379765e-03       1.964875788740e+04 
       7.119427717585e-03       1.985242862311e+04 
       7.246104336551e-03       2.005182686376e+04 
       7.372873974340e-03       2.024725557991e+04 
       7.499732655574e-03       2.043922826201e+04 
       7.626676670038e-03       2.062683442849e+04 
       7.753702552843e-03       2.081087473653e+04 
       7.880807066347e-03       2.099127681959e+04 
       8.007987183656e-03       2.116743036168e+04 
       8.135240073547e-03       2.133985482079e+04 
       8.262563086686e-03       2.150871839096e+04 
       8.389953743005e-03       2.167409673330e+04 
       8.517409720139e-03       2.183548861432e+04 
       8.644928842817e-03       2.199452440223e+04 
       8.772509073122e-03       2.214905770405e+04 
       8.900148501538e-03       2.230024733462e+04 
       9.027845338715e-03       2.244769237171e+04 
       9.155597907893e-03       2.259085283730e+04 
       9.283404637910e-03       2.273168537855e+04 
       9.411264056766e-03       2.286946199015e+04 
       9.539174785674e-03       2.300348602814e+04 
       9.667135533570e-03       2.313491177923e+04 
       9.795145092039e-03       2.326197841706e+04 
       9.923202330616e-03       2.338684937095e+04 
       1.005130619245e-02       2.350730037672e+04 
       1.017945569026e-02       2.362515040103e+04 
       1.030764990265e-02       2.374027651205e+04 
       1.043588797058e-02       2.385216401294e+04 
       1.056416909424e-02       2.396192804314e+04 
       1.069249253000e-02       2.406708743760e+04 
       1.082085758771e-02       2.417005639456e+04 
       1.094926362807e-02       2.427084562221e+04 
       1.107771006030e-02       2.436727566930e+04 
       1.120619633989e-02       2.446164545326e+04 
       1.133472196653e-02       2.455394452491e+04 
       1.146328648223e-02       2.464190629071e+04 
       1.159188946949e-02       2.472847798377e+04 
       1.172053054969e-02       2.481064119575e+04 
       1.184920938150e-02       2.489118330983e+04 
       1.197792565947e-02       2.496894547552e+04 
       1.210667911270e-02       2.504513739151e+04 
       1.223546950358e-02       2.511675183520e+04 
       1.236429662664e-02       2.518758426782e+04 
       1.249316030751e-02       2.525546563437e+04 
       1.262206040187e-02       2.531998047341e+04 
       1.275099679457e-02       2.538153269877e+04 
       1.287996939874e-02       2.544295933336e+04 
       1.300897815503e-02       2.549922744271e+04 
       1.313802303087e-02       2.555450487223e+04 
       1.326710401975e-02       2.560868631382e+04 
       1.339622114065e-02       2.565805634471e+04 
       1.352537443743e-02       2.570623844208e+04 
       1.365456397831e-02       2.575219181879e+04 
       1.378378985537e-02       2.579595683919e+04 
       1.391305218412e-02       2.583743259449e+04 
       1.404235110311e-02       2.587776273392e+04 
       1.417168677353e-02       2.591515875117e+04 
       1.430105937890e-02       2.594950252496e+04 
       1.443046912476e-02       2.598175074963e+04 
       1.455991623840e-02       2.601249658855e+04 
       1.468940096866e-02       2.604260430326e+04 
       1.481892358569e-02       2.606944210890e+04 
       1.494848438077e-02       2.609398597563e+04 
       1.507808366618e-02       2.611549842531e+04 
       1.520772177508e-02       2.613738959880e+04 
       1.533739906139e-02       2.615533028074e+04 
       1.546711589971e-02       2.617263188392e+04 
       1.559687268531e-02       2.618778318052e+04 
       1.572666983405e-02       2.620139567764e+04 
       1.585650778240e-02       2.621194064292e+04 
       1.598638698745e-02       2.622133548277e+04 
       1.611630792692e-02       2.622924651782e+04 
       1.624627109927e-02       2.623497370745e+04 
       1.637627702369e-02       2.624012416046e+04 
       1.650632624028e-02       2.624196517670e+04 
       1.663641931008e-02       2.624356776357e+04 
       1.676655681527e-02       2.624195195148e+04 
       1.689673935924e-02       2.623994016355e+04 
       1.702696756683e-02       2.623593351901e+04 
       1.715724208446e-02       2.622994242092e+04 
       1.728756358034e-02       2.622253646092e+04 
       1.741793274471e-02       2.621421576959e+04 
       1.754835029004e-02       2.620338777786e+04 
       1.767881695127e-02       2.619150225156e+04 
       1.780933348614e-02       2.617813940640e+04 
       1.793990067539e-02       2.616411187746e+04 
       1.807051932311e-02       2.614728467520e+04 
       1.820119025705e-02       2.612935029609e+04 
       1.833191432893e-02       2.611099711199e+04 
       1.846269241483e-02       2.608981601993e+04 
       1.859352541551e-02       2.606830353554e+04 
       1.872441425681e-02       2.604483677292e+04 
       1.885535989006e-02       2.602030554000e+04 
       1.898636329248e-02       2.599442368319e+04 
       1.911742546764e-02       2.596742637047e+04 
       1.924854744587e-02       2.593914579444e+04 
       1.937973028478e-02       2.590965789151e+04 
       1.951097506970e-02       2.587875161763e+04 
       1.964228291423e-02       2.584672482176e+04 
       1.977365496071e-02       2.581358582394e+04 
       1.990509238083e-02       2.577926678888e+04 
       2.003659637614e-02       2.574428350998e+04 
       2.016816817865e-02       2.570712051251e+04 
       2.029980905144e-02       2.566943740507e+04 
       2.043152028928e-02       2.563072765484e+04 
       2.056330321926e-02       2.559075997914e+04 
       2.069515920148e-02       2.554983270381e+04 
       2.082708962971e-02       2.550826232476e+04 
       2.095909593212e-02       2.546495014704e+04 
       2.109117957202e-02       2.542097092609e+04 
       2.122334204857e-02       2.537625575218e+04 
       2.135558489763e-02       2.533016178144e+04 
       2.148790969251e-02       2.528332254437e+04 
       2.162031804483e-02       2.523550388932e+04 
       2.175281160535e-02       2.518684826915e+04 
       2.188539206488e-02       2.513738963266e+04 
       2.201806115521e-02       2.508687707500e+04 
       2.215082064999e-02       2.503560841852e+04 
       2.228367236574e-02       2.498348212684e+04 
       2.241661816287e-02       2.493052252758e+04 
       2.254965994666e-02       2.487672632058e+04 
       2.268279966837e-02       2.482222457212e+04 
       2.281603932631e-02       2.476723754036e+04 
       2.294938096698e-02       2.471074569505e+04 
       2.308282668623e-02       2.465385550634e+04 
       2.321637863050e-02       2.459635707139e+04 
       2.335003899799e-02       2.453810237065e+04 
       2.348381004001e-02       2.447909209168e+04 
       2.361769406228e-02       2.441945351292e+04 
       2.375169342626e-02       2.435912187606e+04 
       2.388581055061e-02       2.429847731442e+04 
       2.402004791260e-02       2.423650261002e+04 
       2.415440804962e-02       2.417418843205e+04 
       2.428889356074e-02       2.411142395440e+04 
       2.442350710827e-02       2.404795601814e+04 
       2.455825141944e-02       2.398395019642e+04 
       2.469312928811e-02       2.391974308566e+04 
       2.482814357646e-02       2.385415999352e+04 
       2.496329721688e-02       2.378847812686e+04 
       2.509859321381e-02       2.372232703072e+04 
       2.523403464565e-02       2.365568517588e+04 
       2.536962466681e-02       2.358843406596e+04 
       2.550536650974e-02       2.352083394891e+04 
       2.564126348707e-02       2.345256163471e+04 
       2.577731899384e-02       2.338389245546e+04 
       2.591353650975e-02       2.331482773944e+04 
       2.604991960155e-02       2.324515430269e+04 
       2.618647192544e-02       2.317517883541e+04 
       2.632319722966e-02       2.310493327960e+04 
       2.646009935706e-02       2.303410542146e+04 
       2.659718224779e-02       2.296274923326e+04 
       2.673444994216e-02       2.289136085967e+04 
       2.687190658348e-02       2.281944624530e+04 
       2.700955642111e-02       2.274727786204e+04 
       2.714740381354e-02       2.267442285696e+04 
       2.728545323163e-02       2.260151697677e+04 
       2.742370926195e-02       2.252826106929e+04 
       2.756217661024e-02       2.245474831296e+04 
       2.770086010502e-02       2.238070589402e+04 
       2.783976470128e-02       2.230684440481e+04 
       2.797889548440e-02       2.223203620535e+04 
       2.811825767410e-02       2.215732289789e+04 
       2.825785662865e-02       2.208242938912e+04 
       2.839769784917e-02       2.200726134688e+04 
       2.853778698416e-02       2.193173123424e+04 
       2.867812983410e-02       2.185601931868e+04 
       2.881873235635e-02       2.178010456570e+04 
       2.895960067017e-02       2.170404893961e+04 
       2.910074106198e-02       2.162758651795e+04 
       2.924215999077e-02       2.155097813003e+04 
       2.938386409380e-02       2.147446222206e+04 
       2.952586019253e-02       2.139735199030e+04 
       2.966815529870e-02       2.132038130542e+04 
       2.981075662077e-02       2.124303299393e+04 
       2.995367157059e-02       2.116570555883e+04 
       3.009690777033e-02       2.108826601495e+04 
       3.024047305974e-02       2.101060524781e+04 
       3.038437550367e-02       2.093268824351e+04 
       3.052862340001e-02       2.085487931389e+04 
       3.067322528785e-02       2.077675272927e+04 
       3.081818995612e-02       2.069853877611e+04 
       3.096352645249e-02       2.062033804769e+04 
       3.110924409282e-02       2.054193085101e+04 
       3.125535247088e-02       2.046374276118e+04 
       3.140186146862e-02       2.038502038341e+04 
       3.154878126689e-02       2.030639906376e+04 
       3.169612235661e-02       2.022790825728e+04 
       3.184389555053e-02       2.014918247702e+04 
       3.199211199549e-02       2.007020967252e+04 
       3.214078318533e-02       1.999143012343e+04 
       3.228992097435e-02       1.991253156992e+04 
       3.243953759146e-02       1.983356080958e+04 
       3.258964565505e-02       1.975456848236e+04 
       3.274025818853e-02       1.967566111611e+04 
       3.289138863677e-02       1.959667521499e+04 
       3.304305088319e-02       1.951759715517e+04 
       3.319525926792e-02       1.943850754012e+04 
       3.334802860675e-02       1.935970886901e+04 
       3.350137421116e-02       1.928033200872e+04 
       3.365531190936e-02       1.920131482796e+04 
       3.380985806846e-02       1.912223903735e+04 
       3.396502961787e-02       1.904305287279e+04 
       3.412084407388e-02       1.896413771671e+04 
       3.427731956575e-02       1.888506747062e+04 
       3.443447486306e-02       1.880591563991e+04 
       3.459232940479e-02       1.872687235819e+04 
       3.475090332989e-02       1.864791290562e+04 
       3.491021750974e-02       1.856884671886e+04 
       3.507029358238e-02       1.849000526367e+04 
       3.523115398888e-02       1.841090840304e+04 
       3.539282201176e-02       1.833215817985e+04 
       3.555532181583e-02       1.825317494764e+04 
       3.571867849140e-02       1.817428877358e+04 
       3.588291810028e-02       1.809536367379e+04 
       3.604806772457e-02       1.801662473718e+04 
       3.621415551856e-02       1.793783958152e+04 
       3.638121076397e-02       1.785914246181e+04 
       3.654926392872e-02       1.778041481190e+04 
       3.671834672963e-02       1.770177573065e+04 
       3.688849219922e-02       1.762314723431e+04 
       3.705973475704e-02       1.754463828527e+04 
       3.723211028586e-02       1.746604288090e+04 
       3.740565621315e-02       1.738773697739e+04 
       3.758041159824e-02       1.730920591359e+04 
       3.775641722567e-02       1.723062984145e+04 
       3.793371570530e-02       1.715224627940e+04 
       3.811235157969e-02       1.707403200604e+04 
       3.829237143944e-02       1.699554551711e+04 
       3.847382404722e-02       1.691722098901e+04 
       3.865676047123e-02       1.683903412111e+04 
       3.884123422901e-02       1.676067578042e+04 
       3.902730144249e-02       1.668255026999e+04 
       3.921502100543e-02       1.660433955258e+04 
       3.940445476445e-02       1.652597958063e+04 
       3.959566771484e-02       1.644792700818e+04 
       3.978872821284e-02       1.636956830553e+04 
       3.998370820579e-02       1.629138288847e+04 
       4.018068348226e-02       1.621331158861e+04 
       4.037973394403e-02       1.613510542939e+04 
       4.058094390229e-02       1.605672502305e+04 
       4.078440240073e-02       1.597849027983e+04 
       4.099020356842e-02       1.590023360434e+04 
       4.119844700576e-02       1.582205888050e+04 
       4.140923820735e-02       1.574359586689e+04 
       4.162268902592e-02       1.566525632702e+04 
       4.183891818228e-02       1.558682322105e+04 
       4.205805182661e-02       1.550819969555e+04 
       4.228022415763e-02       1.542965136394e+04 
       4.250557810647e-02       1.535090013317e+04 
       4.273426609387e-02       1.527227731721e+04 
       4.296645086972e-02       1.519328743822e+04 
       4.320230644619e-02       1.511413526366e+04 
       4.344201913672e-02       1.503492944627e+04 
       4.368578871566e-02       1.495569033086e+04 
       4.393382971521e-02       1.487621143125e+04 
       4.418637287944e-02       1.479659648714e+04 
       4.444366679838e-02       1.471657831203e+04 
       4.470597974901e-02       1.463636804380e+04 
       4.497360177474e-02       1.455602143925e+04 
       4.524684704081e-02       1.447552035088e+04 
       4.552605650951e-02       1.439459350392e+04 
       4.581160098779e-02       1.431330654350e+04 
       4.610388460956e-02       1.423167160883e+04 
       4.640334882743e-02       1.414946873987e+04 
       4.671047700343e-02       1.406721483248e+04 
       4.702579970696e-02       1.398399219688e+04 
       4.734990085066e-02       1.390076118069e+04 
       4.768342482342e-02       1.381690282978e+04 
       4.802708481449e-02       1.373222918108e+04 
       4.838167256685e-02       1.364721432057e+04 
       4.874806985299e-02       1.356112981966e+04 
       4.912726203537e-02       1.347473581273e+04 
       4.952035416210e-02       1.338720300604e+04 
       4.992859015899e-02       1.329855147995e+04 
       5.035337582145e-02       1.320906453819e+04 
       5.079630648936e-02       1.311852236127e+04 
       5.125920051873e-02       1.302668766379e+04 
       5.174413995609e-02       1.293316923897e+04 
       5.225352019310e-02       1.283830864328e+04 
       5.279011084445e-02       1.274141452997e+04 
       5.335713066827e-02       1.264254145359e+04 
       5.395834003964e-02       1.254091969605e+04 
       5.459815527509e-02       1.243753636708e+04 
       5.528178990998e-02       1.233039828095e+04 
       5.601542864872e-02       1.221960051659e+04 
       5.680643967742e-02       1.210424060316e+04 
       5.766362939253e-02       1.198391656357e+04 
       5.859753845871e-02       1.185686101775e+04 
       5.962076591626e-02       1.172155918812e+04 
       6.074828261846e-02       1.157617933061e+04 
       6.199764699740e-02       1.141797291520e+04 
