# Matter power spectrum P(k) at redshift z=0
# for k=1.0419e-05 to 0.625724 h/Mpc,
# number of wavenumbers equal to 560
#    1:k (h/Mpc)              2:P (Mpc/h)^3        
       1.041902320730e-05       5.151918886649e+01 
       2.327848197746e-05       1.118659447499e+02 
       3.618297720921e-05       1.711745159491e+02 
       4.916711340808e-05       2.300752228311e+02 
       6.226606523295e-05       2.889276775771e+02 
       7.551589009675e-05       3.480019777140e+02 
       8.895385072679e-05       4.075294944256e+02 
       1.026187519616e-04       4.677236525913e+02 
       1.165512960946e-04       5.287906014611e+02 
       1.307944611071e-04       5.909356695785e+02 
       1.453939061422e-04       6.543678582420e+02 
       1.603984085105e-04       7.193033388840e+02 
       1.758603363481e-04       7.859684349177e+02 
       1.918361606825e-04       8.546023559564e+02 
       2.083870100214e-04       9.254598147231e+02 
       2.255792695227e-04       9.988136145135e+02 
       2.434852251728e-04       1.074957247613e+03 
       2.621837509798e-04       1.154207510634e+03 
       2.817610337076e-04       1.236907130199e+03 
       3.023113248129e-04       1.323427348961e+03 
       3.239377026355e-04       1.414170386621e+03 
       3.467528191234e-04       1.509571672851e+03 
       3.708795940840e-04       1.610101664132e+03 
       3.964518058814e-04       1.716267034541e+03 
       4.236145106565e-04       1.828610934219e+03 
       4.525242030369e-04       1.947711966877e+03 
       4.833486112227e-04       2.074181440417e+03 
       5.162660007541e-04       2.208658398109e+03 
       5.514638481589e-04       2.351801910658e+03 
       5.891367437681e-04       2.504280191597e+03 
       6.294833994915e-04       2.666756049377e+03 
       6.727026800979e-04       2.839868650366e+03 
       7.189886520115e-04       3.024211666276e+03 
       7.685247538386e-04       3.220308560379e+03 
       8.214773316709e-04       3.428586176319e+03 
       8.779889323489e-04       3.649348509717e+03 
       9.381718804224e-04       3.882752880038e+03 
       1.002102743396e-03       4.128791069078e+03 
       1.069818281430e-03       4.387277719841e+03 
       1.141313363838e-03       4.657847819892e+03 
       1.216541123739e-03       4.939964086580e+03 
       1.295415351038e-03       5.232933718071e+03 
       1.377814849624e-03       5.535914890105e+03 
       1.463589266019e-03       5.847974860406e+03 
       1.552565775227e-03       6.168142011488e+03 
       1.644555997841e-03       6.495384738175e+03 
       1.739362604343e-03       6.828662976257e+03 
       1.836785203448e-03       7.166952775870e+03 
       1.936625272136e-03       7.509266148592e+03 
       2.038690033542e-03       7.854666120783e+03 
       2.142795305625e-03       8.202276478475e+03 
       2.248767421619e-03       8.551288599063e+03 
       2.356444365326e-03       8.900963659876e+03 
       2.465676277752e-03       9.250631974159e+03 
       2.576325485706e-03       9.599692094735e+03 
       2.688266185665e-03       9.947607411431e+03 
       2.801383894105e-03       1.029389991528e+04 
       2.915574752577e-03       1.063814864624e+04 
       3.030744754786e-03       1.097998402359e+04 
       3.146808944855e-03       1.131908024509e+04 
       3.263690621332e-03       1.165515487062e+04 
       3.381320569969e-03       1.198796330990e+04 
       3.499636339688e-03       1.231729145399e+04 
       3.618581569786e-03       1.264295507374e+04 
       3.738105371921e-03       1.296479976987e+04 
       3.858161767350e-03       1.328268841142e+04 
       3.978709177849e-03       1.359650938954e+04 
       4.099709967489e-03       1.390616580460e+04 
       4.221130031721e-03       1.421158142075e+04 
       4.342938429894e-03       1.451268908091e+04 
       4.465107057272e-03       1.480943554321e+04 
       4.587610352681e-03       1.510178447031e+04 
       4.710425038145e-03       1.538969596695e+04 
       4.833529887097e-03       1.567312720016e+04 
       4.956905518048e-03       1.595213470176e+04 
       5.080534210887e-03       1.622662042891e+04 
       5.204399743258e-03       1.649669454382e+04 
       5.328487244733e-03       1.676234935707e+04 
       5.452783066753e-03       1.702350359118e+04 
       5.577274666526e-03       1.728019991463e+04 
       5.701950503294e-03       1.753195819103e+04 
       5.826799945541e-03       1.777980825705e+04 
       5.951813187919e-03       1.802329074413e+04 
       6.076981176764e-03       1.826221717537e+04 
       6.202295543261e-03       1.849696375576e+04 
       6.327748543377e-03       1.872764944929e+04 
       6.453333003833e-03       1.895368353981e+04 
       6.579042273427e-03       1.917561318290e+04 
       6.704870179142e-03       1.939336813972e+04 
       6.830810986512e-03       1.960704486370e+04 
       6.956859363783e-03       1.981693716061e+04 
       7.083010349483e-03       2.002242244989e+04 
       7.209259323023e-03       2.022403615421e+04 
       7.335601978026e-03       2.042147668694e+04 
       7.462034298097e-03       2.061486221747e+04 
       7.588552534784e-03       2.080460046203e+04 
       7.715153187521e-03       2.099038595431e+04 
       7.841832985332e-03       2.117190548256e+04 
       7.968588870143e-03       2.134977802011e+04 
       8.095417981537e-03       2.152381741973e+04 
       8.222317642812e-03       2.169431668635e+04 
       8.349285348215e-03       2.186183303486e+04 
       8.476318751247e-03       2.202491453045e+04 
       8.603415653937e-03       2.218437861358e+04 
       8.730573996992e-03       2.234027274285e+04 
       8.857791850741e-03       2.249257776335e+04 
       8.985067406815e-03       2.264151579915e+04 
       9.112398970479e-03       2.278680783779e+04 
       9.239784953571e-03       2.292781072792e+04 
       9.367223867986e-03       2.306728912681e+04 
       9.494714319669e-03       2.320253288199e+04 
       9.622255003064e-03       2.333431087143e+04 
       9.749844695980e-03       2.346206959262e+04 
       9.877482254847e-03       2.358836101555e+04 
       1.000516661033e-02       2.370942087021e+04 
       1.013289676324e-02       2.382954074781e+04 
       1.026067178080e-02       2.394543211378e+04 
       1.038849079312e-02       2.405825943316e+04 
       1.051635298996e-02       2.416787700200e+04 
       1.064425761774e-02       2.427464635128e+04 
       1.077220397672e-02       2.437832362215e+04 
       1.090019141842e-02       2.447922655408e+04 
       1.102821934321e-02       2.457693148782e+04 
       1.115628719805e-02       2.467193776401e+04 
       1.128439447442e-02       2.476399176008e+04 
       1.141254070640e-02       2.485318853205e+04 
       1.154072546881e-02       2.493875758980e+04 
       1.166894837560e-02       2.502250563544e+04 
       1.179720907825e-02       2.510347668607e+04 
       1.192550726430e-02       2.518270839039e+04 
       1.205384265607e-02       2.525844542850e+04 
       1.218221500934e-02       2.533137586897e+04 
       1.231062411218e-02       2.540196439158e+04 
       1.243906978393e-02       2.546969881102e+04 
       1.256755187414e-02       2.553500083305e+04 
       1.269607026163e-02       2.559688799153e+04 
       1.282462485366e-02       2.565817740645e+04 
       1.295321558509e-02       2.571507966317e+04 
       1.308184241766e-02       2.577156401445e+04 
       1.321050533931e-02       2.582343875325e+04 
       1.333920436351e-02       2.587494520777e+04 
       1.346793952869e-02       2.592363170330e+04 
       1.359671089774e-02       2.596866272956e+04 
       1.372551855744e-02       2.601365853993e+04 
       1.385436261809e-02       2.605386618015e+04 
       1.398324321304e-02       2.609451184503e+04 
       1.411216049836e-02       2.613097488154e+04 
       1.424111465244e-02       2.616659837411e+04 
       1.437010587576e-02       2.619849522663e+04 
       1.449913439059e-02       2.622917025914e+04 
       1.462820044071e-02       2.625872712619e+04 
       1.475730429125e-02       2.628448654535e+04 
       1.488644622852e-02       2.630916821176e+04 
       1.501562655978e-02       2.633271202880e+04 
       1.514484561319e-02       2.635222493387e+04 
       1.527410373767e-02       2.637170620327e+04 
       1.540340130280e-02       2.638768098866e+04 
       1.553273869882e-02       2.640290538886e+04 
       1.566211633654e-02       2.641567394255e+04 
       1.579153464736e-02       2.642760000865e+04 
       1.592099408328e-02       2.643618396533e+04 
       1.605049511690e-02       2.644314368495e+04 
       1.618003824149e-02       2.645007656319e+04 
       1.630962397106e-02       2.645307077211e+04 
       1.643925284046e-02       2.645527063511e+04 
       1.656892540546e-02       2.645575230982e+04 
       1.669864224286e-02       2.645457119953e+04 
       1.682840395070e-02       2.645164637954e+04 
       1.695821114835e-02       2.644718433785e+04 
       1.708806447672e-02       2.644113707773e+04 
       1.721796459846e-02       2.643443977029e+04 
       1.734791219815e-02       2.642408055902e+04 
       1.747790798254e-02       2.641338428583e+04 
       1.760795268080e-02       2.640150166415e+04 
       1.773804704477e-02       2.638697604697e+04 
       1.786819184927e-02       2.637285439048e+04 
       1.799838789234e-02       2.635492003710e+04 
       1.812863599560e-02       2.633682142589e+04 
       1.825893700455e-02       2.631716601265e+04 
       1.838929178893e-02       2.629713335247e+04 
       1.851970124310e-02       2.627452132741e+04 
       1.865016628636e-02       2.625060561742e+04 
       1.878068786342e-02       2.622494983742e+04 
       1.891126694473e-02       2.619861196151e+04 
       1.904190452700e-02       2.617147751703e+04 
       1.917260163358e-02       2.614160340510e+04 
       1.930335931496e-02       2.611129408374e+04 
       1.943417864923e-02       2.608059652120e+04 
       1.956506074261e-02       2.604738238254e+04 
       1.969600672993e-02       2.601409271923e+04 
       1.982701777523e-02       2.597860460012e+04 
       1.995809507224e-02       2.594237235597e+04 
       2.008923984502e-02       2.590509131418e+04 
       2.022045334856e-02       2.586760096335e+04 
       2.035173686933e-02       2.582777400000e+04 
       2.048309172601e-02       2.578721769654e+04 
       2.061451927007e-02       2.574498745869e+04 
       2.074602088652e-02       2.570225499117e+04 
       2.087759799455e-02       2.565870128964e+04 
       2.100925204832e-02       2.561396005558e+04 
       2.114098453766e-02       2.556891766846e+04 
       2.127279698888e-02       2.552142198503e+04 
       2.140469096555e-02       2.547402667128e+04 
       2.153666806933e-02       2.542541382961e+04 
       2.166872994084e-02       2.537632859736e+04 
       2.180087826049e-02       2.532606727129e+04 
       2.193311474945e-02       2.527449221845e+04 
       2.206544117052e-02       2.522202671685e+04 
       2.219785932915e-02       2.516938115057e+04 
       2.233037107439e-02       2.511538545177e+04 
       2.246297829994e-02       2.506058072362e+04 
       2.259568294520e-02       2.500559981380e+04 
       2.272848699635e-02       2.494923926615e+04 
       2.286139248749e-02       2.489201879369e+04 
       2.299440150180e-02       2.483440007021e+04 
       2.312751617271e-02       2.477661757489e+04 
       2.326073868516e-02       2.471672498177e+04 
       2.339407127685e-02       2.465771774480e+04 
       2.352751623958e-02       2.459661811532e+04 
       2.366107592058e-02       2.453543559309e+04 
       2.379475272390e-02       2.447353733671e+04 
       2.392854911189e-02       2.441129582736e+04 
       2.406246760665e-02       2.434818939641e+04 
       2.419651079157e-02       2.428412815594e+04 
       2.433068131291e-02       2.422026723828e+04 
       2.446498188149e-02       2.415487573916e+04 
       2.459941527428e-02       2.408976313519e+04 
       2.473398433623e-02       2.402330453430e+04 
       2.486869198204e-02       2.395701663427e+04 
       2.500354119799e-02       2.388955409535e+04 
       2.513853504391e-02       2.382226899305e+04 
       2.527367665514e-02       2.375382345690e+04 
       2.540896924460e-02       2.368511053788e+04 
       2.554441610486e-02       2.361635157135e+04 
       2.568002061041e-02       2.354676544746e+04 
       2.581578621985e-02       2.347636389462e+04 
       2.595171647830e-02       2.340583308605e+04 
       2.608781501976e-02       2.333497218796e+04 
       2.622408556968e-02       2.326401899826e+04 
       2.636053194750e-02       2.319188976473e+04 
       2.649715806940e-02       2.311984832266e+04 
       2.663396795100e-02       2.304747516210e+04 
       2.677096571032e-02       2.297442332017e+04 
       2.690815557072e-02       2.290123067988e+04 
       2.704554186397e-02       2.282789098068e+04 
       2.718312903350e-02       2.275379242789e+04 
       2.732092163770e-02       2.267984823828e+04 
       2.745892435334e-02       2.260508509794e+04 
       2.759714197915e-02       2.253036615149e+04 
       2.773557943952e-02       2.245528707323e+04 
       2.787424178834e-02       2.237963551259e+04 
       2.801313421298e-02       2.230395365974e+04 
       2.815226203841e-02       2.222816769327e+04 
       2.829163073152e-02       2.215186515610e+04 
       2.843124590555e-02       2.207549942485e+04 
       2.857111332472e-02       2.199896902208e+04 
       2.871123890908e-02       2.192197423197e+04 
       2.885162873945e-02       2.184504074600e+04 
       2.899228906267e-02       2.176770323060e+04 
       2.913322629699e-02       2.169023025005e+04 
       2.927444703771e-02       2.161259198863e+04 
       2.941595806300e-02       2.153475822111e+04 
       2.955776634004e-02       2.145664738915e+04 
       2.969987903135e-02       2.137852515111e+04 
       2.984230350141e-02       2.130005847126e+04 
       2.998504732353e-02       2.122160235211e+04 
       3.012811828707e-02       2.114329175999e+04 
       3.027152440491e-02       2.106426542297e+04 
       3.041527392129e-02       2.098554887343e+04 
       3.055937531992e-02       2.090640498370e+04 
       3.070383733254e-02       2.082745700862e+04 
       3.084866894782e-02       2.074829050070e+04 
       3.099387942059e-02       2.066895564578e+04 
       3.113947828163e-02       2.058978648362e+04 
       3.128547534773e-02       2.051044264375e+04 
       3.143188073242e-02       2.043075829664e+04 
       3.157870485698e-02       2.035120555613e+04 
       3.172595846212e-02       2.027160293319e+04 
       3.187365262017e-02       2.019172776476e+04 
       3.202179874780e-02       2.011196118363e+04 
       3.217040861944e-02       2.003219313113e+04 
       3.231949438129e-02       1.995229018759e+04 
       3.246906856603e-02       1.987261903374e+04 
       3.261914410827e-02       1.979266128178e+04 
       3.276973436077e-02       1.971268700198e+04 
       3.292085311149e-02       1.963278261316e+04 
       3.307251460149e-02       1.955299306408e+04 
       3.322473354375e-02       1.947288917483e+04 
       3.337752514302e-02       1.939292598683e+04 
       3.353090511667e-02       1.931293048954e+04 
       3.368488971663e-02       1.923298507988e+04 
       3.383949575261e-02       1.915309119930e+04 
       3.399474061644e-02       1.907306319563e+04 
       3.415064230789e-02       1.899331842351e+04 
       3.430721946183e-02       1.891325806946e+04 
       3.446449137693e-02       1.883335436643e+04 
       3.462247804604e-02       1.875349303677e+04 
       3.478120018828e-02       1.867373873310e+04 
       3.494067928296e-02       1.859378656307e+04 
       3.510093760557e-02       1.851411735786e+04 
       3.526199826588e-02       1.843432679566e+04 
       3.542388524827e-02       1.835455960901e+04 
       3.558662345464e-02       1.827505707449e+04 
       3.575023874983e-02       1.819523898138e+04 
       3.591475801000e-02       1.811559582751e+04 
       3.608020917394e-02       1.803607556395e+04 
       3.624662129777e-02       1.795650254068e+04 
       3.641402461309e-02       1.787696281076e+04 
       3.658245058902e-02       1.779744746303e+04 
       3.675193199828e-02       1.771821895238e+04 
       3.692250298780e-02       1.763872437602e+04 
       3.709419915405e-02       1.755944462413e+04 
       3.726705762363e-02       1.748011514799e+04 
       3.744111713951e-02       1.740081852879e+04 
       3.761641815330e-02       1.732163661211e+04 
       3.779300292428e-02       1.724257964416e+04 
       3.797091562552e-02       1.716327708223e+04 
       3.815020245797e-02       1.708418105095e+04 
       3.833091177301e-02       1.700523427769e+04 
       3.851309420435e-02       1.692612256243e+04 
       3.869680281017e-02       1.684709994520e+04 
       3.888209322635e-02       1.676816548512e+04 
       3.906902383186e-02       1.668906499084e+04 
       3.925765592758e-02       1.661011841182e+04 
       3.944805392977e-02       1.653114826207e+04 
       3.964028557961e-02       1.645225859064e+04 
       3.983442217060e-02       1.637335864851e+04 
       4.003053879537e-02       1.629456698273e+04 
       4.022871461424e-02       1.621569320490e+04 
       4.042903314754e-02       1.613656452301e+04 
       4.063158259447e-02       1.605758298229e+04 
       4.083645618122e-02       1.597857082068e+04 
       4.104375254176e-02       1.589957434765e+04 
       4.125357613487e-02       1.582072888191e+04 
       4.146603770166e-02       1.574147928404e+04 
       4.168125476832e-02       1.566219910768e+04 
       4.189935219946e-02       1.558327853224e+04 
       4.212046280825e-02       1.550385538474e+04 
       4.234472803034e-02       1.542451679843e+04 
       4.257229866969e-02       1.534514766788e+04 
       4.280333572549e-02       1.526552166824e+04 
       4.303801131097e-02       1.518578106708e+04 
       4.327650967619e-02       1.510594580331e+04 
       4.351902834926e-02       1.502598729632e+04 
       4.376577941248e-02       1.494593069594e+04 
       4.401699093256e-02       1.486552030376e+04 
       4.427290856748e-02       1.478488040978e+04 
       4.453379737634e-02       1.470451715085e+04 
       4.479994386301e-02       1.462335663582e+04 
       4.507165829017e-02       1.454202708734e+04 
       4.534927730677e-02       1.446073332789e+04 
       4.563316694013e-02       1.437892887452e+04 
       4.592372601361e-02       1.429642029374e+04 
       4.622139006278e-02       1.421380611716e+04 
       4.652663583754e-02       1.413085438639e+04 
       4.683998649568e-02       1.404737228407e+04 
       4.716201761532e-02       1.396322456067e+04 
       4.749336418136e-02       1.387922301277e+04 
       4.783472873488e-02       1.379425756761e+04 
       4.818689091735e-02       1.370822814711e+04 
       4.855071869466e-02       1.362217091354e+04 
       4.892718161366e-02       1.353482050357e+04 
       4.931736652862e-02       1.344648604905e+04 
       4.972249634324e-02       1.335805374167e+04 
       5.014395245105e-02       1.326825992300e+04 
       5.058330173164e-02       1.317717046212e+04 
       5.104232918347e-02       1.308463403157e+04 
       5.152307755749e-02       1.299100971921e+04 
       5.202789571607e-02       1.289570753349e+04 
       5.255949789430e-02       1.279839896048e+04 
       5.312103660171e-02       1.269941578844e+04 
       5.371619257864e-02       1.259776381355e+04 
       5.434928599759e-02       1.249397179866e+04 
       5.502541390706e-02       1.238685327221e+04 
       5.575061956914e-02       1.227593947241e+04 
       5.653209942345e-02       1.216066384574e+04 
       5.737845203723e-02       1.204027505975e+04 
       5.829996882249e-02       1.191352449195e+04 
       5.930895521400e-02       1.177891574351e+04 
       6.042004759053e-02       1.163463278556e+04 
       6.165044631011e-02       1.147732427783e+04 
