# Matter power spectrum P(k) at redshift z=0
# for k=1.03636e-05 to 8.38623 h/Mpc,
# number of wavenumbers equal to 612
#    1:k (h/Mpc)              2:P (Mpc/h)^3        
       1.036357219800e-05       5.022005025211e+01 
       2.313727363273e-05       1.089317259795e+02 
       3.595515457735e-05       1.666183739457e+02 
       4.885112941779e-05       2.238960397285e+02 
       6.185966427753e-05       2.811146759414e+02 
       7.501607926511e-05       3.385361459440e+02 
       8.835686023322e-05       3.963840887584e+02 
       1.019199841322e-04       4.548642592035e+02 
       1.157452620725e-04       5.141750157805e+02 
       1.298747042446e-04       5.745135515340e+02 
       1.443529108510e-04       6.360803209565e+02 
       1.592274931593e-04       6.990823625056e+02 
       1.745495286245e-04       7.637361687967e+02 
       1.903740537025e-04       8.302702858618e+02 
       2.067605973878e-04       8.989278669733e+02 
       2.237737575396e-04       9.699690462707e+02 
       2.414838205692e-04       1.043673451125e+03 
       2.599674228324e-04       1.120342696727e+03 
       2.793082488777e-04       1.200302803269e+03 
       2.995977572313e-04       1.283906777888e+03 
       3.209359183158e-04       1.371536851642e+03 
       3.434319410221e-04       1.463606714603e+03 
       3.672049540403e-04       1.560563252069e+03 
       3.923845950228e-04       1.662887816325e+03 
       4.191114449928e-04       1.771096539869e+03 
       4.475372274983e-04       1.885739645837e+03 
       4.778246729509e-04       2.007399069667e+03 
       5.101469305022e-04       2.136684136779e+03 
       5.446863962064e-04       2.274224614414e+03 
       5.816328221878e-04       2.420660955983e+03 
       6.211805836694e-04       2.576631091657e+03 
       6.635250163751e-04       2.742753598967e+03 
       7.088578024769e-04       2.919607501315e+03 
       7.573614818516e-04       3.107709191366e+03 
       8.092032929326e-04       3.307487256672e+03 
       8.645286898396e-04       3.519257282476e+03 
       9.234550146770e-04       3.743198207194e+03 
       9.860658928022e-04       3.979333063538e+03 
       1.052406931468e-03       4.227516115721e+03 
       1.122483217247e-03       4.487428004235e+03 
       1.196258926525e-03       4.758580691001e+03 
       1.273659114957e-03       5.040331111237e+03 
       1.354573486344e-03       5.331890568449e+03 
       1.438861715625e-03       5.632360964083e+03 
       1.526359758985e-03       5.940811351483e+03 
       1.616886545780e-03       6.256240710081e+03 
       1.710250503430e-03       6.577632785038e+03 
       1.806255488498e-03       6.903981101366e+03 
       1.904705848128e-03       7.234309934806e+03 
       2.005410482987e-03       7.567690239078e+03 
       2.108185903873e-03       7.903250472132e+03 
       2.212858359547e-03       8.240184424277e+03 
       2.319265163242e-03       8.577754396178e+03 
       2.427255365743e-03       8.915291807125e+03 
       2.536689922351e-03       9.252195636481e+03 
       2.647441487387e-03       9.587928963959e+03 
       2.759393949924e-03       9.922016835358e+03 
       2.872441802557e-03       1.025403903479e+04 
       2.986489414260e-03       1.058362778915e+04 
       3.101450260175e-03       1.091046126268e+04 
       3.217246146077e-03       1.123426025967e+04 
       3.333806453276e-03       1.155478284758e+04 
       3.451067420583e-03       1.187181985774e+04 
       3.568971473110e-03       1.218519209029e+04 
       3.687466602820e-03       1.249474901462e+04 
       3.806505802303e-03       1.280036089951e+04 
       3.926046550960e-03       1.310192140768e+04 
       4.046050351324e-03       1.339933948974e+04 
       4.166482312351e-03       1.369254439661e+04 
       4.287310776102e-03       1.398147660525e+04 
       4.408506984028e-03       1.426609021037e+04 
       4.530044779148e-03       1.454634938245e+04 
       4.651900340514e-03       1.482223225872e+04 
       4.774051946613e-03       1.509371653527e+04 
       4.896479764592e-03       1.536079826818e+04 
       5.019165662483e-03       1.562348436770e+04 
       5.142093041857e-03       1.588176895628e+04 
       5.265246688611e-03       1.613566028100e+04 
       5.388612639847e-03       1.638517338484e+04 
       5.512178064988e-03       1.663032275235e+04 
       5.635931159543e-03       1.687112881168e+04 
       5.759861050056e-03       1.710761711914e+04 
       5.883957708986e-03       1.733980590561e+04 
       6.008211878396e-03       1.756773428878e+04 
       6.132615001459e-03       1.779142594334e+04 
       6.257159160903e-03       1.801090746689e+04 
       6.381837023638e-03       1.822622383438e+04 
       6.506641790870e-03       1.843739967958e+04 
       6.631567153122e-03       1.864447062464e+04 
       6.756607249608e-03       1.884748122377e+04 
       6.881756631515e-03       1.904646591159e+04 
       7.007010228759e-03       1.924145275202e+04 
       7.132363319867e-03       1.943249770653e+04 
       7.257811504649e-03       1.961962734347e+04 
       7.383350679369e-03       1.980288094818e+04 
       7.508977014172e-03       1.998230448554e+04 
       7.634686932530e-03       2.015793803526e+04 
       7.760477092509e-03       2.032982142276e+04 
       7.886344369671e-03       2.049798586845e+04 
       8.012285841467e-03       2.066248221607e+04 
       8.138298772953e-03       2.082334500542e+04 
       8.264380603725e-03       2.098060298361e+04 
       8.390528935943e-03       2.113432557124e+04 
       8.516741523347e-03       2.128453295875e+04 
       8.643016261177e-03       2.143126710043e+04 
       8.769351176909e-03       2.157456630665e+04 
       8.895744421728e-03       2.171446878754e+04 
       9.022194262690e-03       2.185102018405e+04 
       9.148699075494e-03       2.198425142061e+04 
       9.275257337816e-03       2.211420425213e+04 
       9.401867623159e-03       2.224091748373e+04 
       9.528528595177e-03       2.236442121122e+04 
       9.655239002424e-03       2.248476764514e+04 
       9.781997673499e-03       2.260197321282e+04 
       9.908803512557e-03       2.271608438861e+04 
       1.003565549514e-02       2.282713659125e+04 
       1.016255266434e-02       2.293517225190e+04 
       1.028949412719e-02       2.304020275488e+04 
       1.041647905140e-02       2.314229729204e+04 
       1.054350666222e-02       2.324146756176e+04 
       1.067057623963e-02       2.333775288789e+04 
       1.079768711565e-02       2.343118743126e+04 
       1.092483867192e-02       2.352180702876e+04 
       1.105203033735e-02       2.360964185589e+04 
       1.117926158602e-02       2.369474745739e+04 
       1.130653193519e-02       2.377711827717e+04 
       1.143384094347e-02       2.385682042052e+04 
       1.156118820907e-02       2.393386297087e+04 
       1.168857336824e-02       2.400829637939e+04 
       1.181599609374e-02       2.408014536254e+04 
       1.194345609353e-02       2.414944449373e+04 
       1.207095310939e-02       2.421621781324e+04 
       1.219848691581e-02       2.428050334172e+04 
       1.232605731883e-02       2.434233483357e+04 
       1.245366415501e-02       2.440173482873e+04 
       1.258130729051e-02       2.445874377693e+04 
       1.270898662014e-02       2.451337977650e+04 
       1.283670206659e-02       2.456567741560e+04 
       1.296445357963e-02       2.461568024669e+04 
       1.309224113543e-02       2.466339549214e+04 
       1.322006473589e-02       2.470886321269e+04 
       1.334792440803e-02       2.475212015889e+04 
       1.347582020347e-02       2.479318149739e+04 
       1.360375219788e-02       2.483208438876e+04 
       1.373172049055e-02       2.486883204370e+04 
       1.385972520393e-02       2.490349639430e+04 
       1.398776648327e-02       2.493605893442e+04 
       1.411584449626e-02       2.496655993406e+04 
       1.424395943272e-02       2.499503808571e+04 
       1.437211150430e-02       2.502152194741e+04 
       1.450030094423e-02       2.504602933257e+04 
       1.462852800713e-02       2.506857285339e+04 
       1.475679296878e-02       2.508919904292e+04 
       1.488509612598e-02       2.510792347552e+04 
       1.501343779637e-02       2.512475657738e+04 
       1.514181831838e-02       2.513973514435e+04 
       1.527023805109e-02       2.515291053209e+04 
       1.539869737418e-02       2.516426232817e+04 
       1.552719668790e-02       2.517384624699e+04 
       1.565573641302e-02       2.518167303693e+04 
       1.578431699085e-02       2.518775914018e+04 
       1.591293888327e-02       2.519215602015e+04 
       1.604160257274e-02       2.519485160403e+04 
       1.617030856239e-02       2.519589367558e+04 
       1.629905737608e-02       2.519529162105e+04 
       1.642784955853e-02       2.519308251257e+04 
       1.655668567537e-02       2.518927143423e+04 
       1.668556631336e-02       2.518389537787e+04 
       1.681449208047e-02       2.517696415344e+04 
       1.694346360610e-02       2.516851452531e+04 
       1.707248154123e-02       2.515854726126e+04 
       1.720154655866e-02       2.514709514782e+04 
       1.733065935319e-02       2.513419286889e+04 
       1.745982064190e-02       2.511985223505e+04 
       1.758903116436e-02       2.510408655064e+04 
       1.771829168295e-02       2.508692020492e+04 
       1.784760298311e-02       2.506836590494e+04 
       1.797696587364e-02       2.504847060262e+04 
       1.810638118707e-02       2.502723534989e+04 
       1.823584977994e-02       2.500467816658e+04 
       1.836537253318e-02       2.498083084455e+04 
       1.849495035249e-02       2.495570667392e+04 
       1.862458416870e-02       2.492932118437e+04 
       1.875427493821e-02       2.490170665729e+04 
       1.888402364338e-02       2.487288023378e+04 
       1.901383129298e-02       2.484285054861e+04 
       1.914369892266e-02       2.481165690219e+04 
       1.927362759541e-02       2.477927771022e+04 
       1.940361840204e-02       2.474578830393e+04 
       1.953367246173e-02       2.471115636341e+04 
       1.966379092253e-02       2.467543138735e+04 
       1.979397496192e-02       2.463863565003e+04 
       1.992422578737e-02       2.460077035929e+04 
       2.005454463693e-02       2.456183341927e+04 
       2.018493277985e-02       2.452192560054e+04 
       2.031539151720e-02       2.448095366451e+04 
       2.044592218253e-02       2.443903923440e+04 
       2.057652614250e-02       2.439616477664e+04 
       2.070720479766e-02       2.435227142040e+04 
       2.083795958306e-02       2.430751064222e+04 
       2.096879196907e-02       2.426173753496e+04 
       2.109970346212e-02       2.421515161416e+04 
       2.123069560548e-02       2.416762941135e+04 
       2.136176998006e-02       2.411922157505e+04 
       2.149292820529e-02       2.407002490101e+04 
       2.162417193994e-02       2.401994601436e+04 
       2.175550288306e-02       2.396907713596e+04 
       2.188692277484e-02       2.391741251512e+04 
       2.201843339762e-02       2.386494913458e+04 
       2.215003657684e-02       2.381168846449e+04 
       2.228173418203e-02       2.375768733507e+04 
       2.241352812789e-02       2.370295812923e+04 
       2.254542037535e-02       2.364751024604e+04 
       2.267741293267e-02       2.359129969496e+04 
       2.280950785659e-02       2.353445167542e+04 
       2.294170725349e-02       2.347690087180e+04 
       2.307401328064e-02       2.341865329633e+04 
       2.320642814743e-02       2.335982983425e+04 
       2.333895411665e-02       2.330032604982e+04 
       2.347159350586e-02       2.324019720374e+04 
       2.360434868875e-02       2.317949144365e+04 
       2.373722209654e-02       2.311816682412e+04 
       2.387021621947e-02       2.305625096505e+04 
       2.400333360831e-02       2.299380653281e+04 
       2.413657687591e-02       2.293080191501e+04 
       2.426994869883e-02       2.286718515818e+04 
       2.440345181898e-02       2.280316840785e+04 
       2.453708904535e-02       2.273852403139e+04 
       2.467086325579e-02       2.267343717335e+04 
       2.480477739884e-02       2.260788171830e+04 
       2.493883449561e-02       2.254179180443e+04 
       2.507303764176e-02       2.247520465752e+04 
       2.520739000950e-02       2.240834158147e+04 
       2.534189484968e-02       2.234088114825e+04 
       2.547655549398e-02       2.227301792418e+04 
       2.561137535710e-02       2.220485918724e+04 
       2.574635793909e-02       2.213617742129e+04 
       2.588150682775e-02       2.206714036952e+04 
       2.601682570108e-02       2.199772891823e+04 
       2.615231832984e-02       2.192797532942e+04 
       2.628798858022e-02       2.185783461550e+04 
       2.642384041653e-02       2.178734899686e+04 
       2.655987790411e-02       2.171657929997e+04 
       2.669610521217e-02       2.164547091668e+04 
       2.683252661694e-02       2.157399849682e+04 
       2.696914650474e-02       2.150226774219e+04 
       2.710596937527e-02       2.143022179416e+04 
       2.724299984502e-02       2.135791765496e+04 
       2.738024265076e-02       2.128539228197e+04 
       2.751770265316e-02       2.121259748371e+04 
       2.765538484064e-02       2.113948403100e+04 
       2.779329433320e-02       2.106616555162e+04 
       2.793143638654e-02       2.099258170637e+04 
       2.806981639630e-02       2.091887113275e+04 
       2.820843990239e-02       2.084485793152e+04 
       2.834731259361e-02       2.077061820050e+04 
       2.848644031231e-02       2.069630972852e+04 
       2.862582905940e-02       2.062169101743e+04 
       2.876548499940e-02       2.054697746342e+04 
       2.890541446578e-02       2.047203389451e+04 
       2.904562396650e-02       2.039700793912e+04 
       2.918612018980e-02       2.032175084694e+04 
       2.932691001012e-02       2.024643080629e+04 
       2.946800049442e-02       2.017091990130e+04 
       2.960939890865e-02       2.009529905717e+04 
       2.975111272455e-02       2.001950617947e+04 
       2.989314962669e-02       1.994367034103e+04 
       3.003551751984e-02       1.986770482196e+04 
       3.017822453667e-02       1.979165206270e+04 
       3.032127904579e-02       1.971551737905e+04 
       3.046468966004e-02       1.963923547621e+04 
       3.060846524534e-02       1.956286055273e+04 
       3.075261492974e-02       1.948644533645e+04 
       3.089714811297e-02       1.940996717831e+04 
       3.104207447647e-02       1.933347784541e+04 
       3.118740399377e-02       1.925684989394e+04 
       3.133314694142e-02       1.918023492631e+04 
       3.147931391041e-02       1.910365801556e+04 
       3.162591581818e-02       1.902695235711e+04 
       3.177296392107e-02       1.895016559043e+04 
       3.192046982755e-02       1.887339284959e+04 
       3.206844551191e-02       1.879655370698e+04 
       3.221690332877e-02       1.871975802526e+04 
       3.236585602820e-02       1.864294876144e+04 
       3.251531677170e-02       1.856609981018e+04 
       3.266529914883e-02       1.848931768466e+04 
       3.281581719489e-02       1.841251044338e+04 
       3.296688540933e-02       1.833559559704e+04 
       3.311851877522e-02       1.825878744177e+04 
       3.327073277971e-02       1.818201178753e+04 
       3.342354343559e-02       1.810522517322e+04 
       3.357696730399e-02       1.802844904716e+04 
       3.373102151833e-02       1.795169736366e+04 
       3.388572380957e-02       1.787497415589e+04 
       3.404109253285e-02       1.779833040254e+04 
       3.419714669568e-02       1.772166856160e+04 
       3.435390598761e-02       1.764509646371e+04 
       3.451139081176e-02       1.756845180570e+04 
       3.466962231804e-02       1.749188885737e+04 
       3.482862243838e-02       1.741540252528e+04 
       3.498841392404e-02       1.733895945222e+04 
       3.514902038518e-02       1.726252667174e+04 
       3.531046633278e-02       1.718617710158e+04 
       3.547277722316e-02       1.710985481636e+04 
       3.563597950531e-02       1.703362360311e+04 
       3.580010067115e-02       1.695741560873e+04 
       3.596516930898e-02       1.688122149066e+04 
       3.613121516045e-02       1.680512986775e+04 
       3.629826918115e-02       1.672906074327e+04 
       3.646636360533e-02       1.665304228814e+04 
       3.663553201484e-02       1.657709246927e+04 
       3.680580941285e-02       1.650115149537e+04 
       3.697723230254e-02       1.642536240551e+04 
       3.714983877143e-02       1.634957614557e+04 
       3.732366858147e-02       1.627383532734e+04 
       3.749876326579e-02       1.619810698603e+04 
       3.767516623232e-02       1.612244497570e+04 
       3.785292287513e-02       1.604689250359e+04 
       3.803208069409e-02       1.597134745693e+04 
       3.821268942355e-02       1.589582242117e+04 
       3.839480117099e-02       1.582031436597e+04 
       3.857847056643e-02       1.574490167959e+04 
       3.876375492376e-02       1.566950838921e+04 
       3.895071441496e-02       1.559413378770e+04 
       3.913941225867e-02       1.551881558458e+04 
       3.932991492429e-02       1.544353159120e+04 
       3.952229235342e-02       1.536820355081e+04 
       3.971661820019e-02       1.529293801288e+04 
       3.991297009257e-02       1.521765873810e+04 
       4.011142991684e-02       1.514236956408e+04 
       4.031208412764e-02       1.506710433968e+04 
       4.051502408647e-02       1.499184035387e+04 
       4.072034643175e-02       1.491660336681e+04 
       4.092815348401e-02       1.484127608556e+04 
       4.113855369016e-02       1.476594071484e+04 
       4.135166211157e-02       1.469060405243e+04 
       4.156760096102e-02       1.461517476807e+04 
       4.178650019445e-02       1.453975528608e+04 
       4.200849816439e-02       1.446420660256e+04 
       4.223374234269e-02       1.438862531734e+04 
       4.246239012152e-02       1.431293708517e+04 
       4.269460970281e-02       1.423712387906e+04 
       4.293058108805e-02       1.416126202184e+04 
       4.317049718197e-02       1.408525120120e+04 
       4.341456502603e-02       1.400910222162e+04 
       4.366300718007e-02       1.393280213628e+04 
       4.391606327377e-02       1.385633525391e+04 
       4.417399175289e-02       1.377966585791e+04 
       4.443707184992e-02       1.370280273310e+04 
       4.470560581398e-02       1.362570288914e+04 
       4.497992144095e-02       1.354832240700e+04 
       4.526037495272e-02       1.347070087505e+04 
       4.554735428346e-02       1.339282944107e+04 
       4.584128284233e-02       1.331453607793e+04 
       4.614262383563e-02       1.323595727698e+04 
       4.645188524862e-02       1.315686637283e+04 
       4.676962560774e-02       1.307746548586e+04 
       4.709646067016e-02       1.299753827635e+04 
       4.743307121963e-02       1.291709745386e+04 
       4.778021218743e-02       1.283608113386e+04 
       4.813872336791e-02       1.275444502779e+04 
       4.850954206102e-02       1.267215930796e+04 
       4.889371805405e-02       1.258908527292e+04 
       4.929243145636e-02       1.250518609224e+04 
       4.970701402887e-02       1.242039019183e+04 
       5.013897481438e-02       1.233455155513e+04 
       5.059003108340e-02       1.224759820221e+04 
       5.106214587593e-02       1.215939031608e+04 
       5.155757375776e-02       1.206976117795e+04 
       5.207891683546e-02       1.197856347990e+04 
       5.262919360440e-02       1.188553670007e+04 
       5.321192384802e-02       1.179048634101e+04 
       5.383123355746e-02       1.169302114056e+04 
       5.449198464532e-02       1.159279367954e+04 
       5.519993494083e-02       1.148936239339e+04 
       5.596193422988e-02       1.138204735688e+04 
       5.678616120755e-02       1.127011773396e+04 
       5.768240266303e-02       1.115254970693e+04 
       5.866236718795e-02       1.102802665579e+04 
       5.974000611398e-02       1.089483002833e+04 
       6.093177596493e-02       1.075042208200e+04 
