5.0000000000000002e-05 6.4983064960190962e-01 4.2201073605030714e-01 2.9885381293559860e-01 2.2564844048565361e-01 1.7816390973894519e-01 1.4532056213767799e-01 
2.0539078156312628e-03 6.4762985875651957e-01 4.2069203204249878e-01 2.9798771322940654e-01 2.2506343806743326e-01 1.7777902034674969e-01 1.4509216359959087e-01 
4.0578156312625260e-03 6.4543605745420074e-01 4.1937795749426482e-01 2.9712500001909387e-01 2.2448084516204198e-01 1.7739566704811219e-01 1.4486454548218961e-01 
6.0617234468937891e-03 6.4324921413885860e-01 4.1806848402391761e-01 2.9626564808343880e-01 2.2390064233318480e-01 1.7701383791369132e-01 1.4463770284289926e-01 
8.0656312625250522e-03 6.4106929743787910e-01 4.1676358348881837e-01 2.9540963246243951e-01 2.2332281036376431e-01 1.7663352114488626e-01 1.4441163078464966e-01 
1.0069539078156315e-02 6.3889627616079303e-01 4.1546322798282986e-01 2.9455692845389791e-01 2.2274733025276661e-01 1.7625470507204116e-01 1.4418632445536131e-01 
1.2073446893787579e-02 6.3673011929795287e-01 4.1416738983380069e-01 2.9370751161005659e-01 2.2217418321220164e-01 1.7587737815267968e-01 1.4396177904743637e-01 
1.4077354709418842e-02 6.3457079601922084e-01 4.1287604160108266e-01 2.9286135773428817e-01 2.2160335066409395e-01 1.7550152896976912e-01 1.4373798979725835e-01 
1.6081262525050103e-02 6.3241827567266795e-01 4.1158915607307972e-01 2.9201844287783785e-01 2.2103481423752669e-01 1.7512714623001244e-01 1.4351495198469744e-01 
1.8085170340681366e-02 6.3027252778328402e-01 4.1030670626482640e-01 2.9117874333661520e-01 2.2046855576573463e-01 1.7475421876216898e-01 1.4329266093262363e-01 
2.0089078156312629e-02 6.2813352205170059e-01 4.0902866541559924e-01 2.9034223564803691e-01 2.1990455728324629e-01 1.7438273551540256e-01 1.4307111200642592e-01 
2.2092985971943892e-02 6.2600122835292149e-01 4.0775500698655748e-01 2.8950889658791845e-01 2.1934280102307499e-01 1.7401268555765673e-01 1.4285030061353837e-01 
2.4096893787575156e-02 6.2387561673506753e-01 4.0648570465841272e-01 2.8867870316741323e-01 2.1878326941395640e-01 1.7364405807405658e-01 1.4263022220297258e-01 
2.6100801603206419e-02 6.2175665741813080e-01 4.0522073232912947e-01 2.8785163262999997e-01 2.1822594507763315e-01 1.7327684236533650e-01 1.4241087226485669e-01 
2.8104709418837682e-02 6.1964432079273812e-01 4.0396006411165303e-01 2.8702766244851591e-01 2.1767081082618431e-01 1.7291102784629320e-01 1.4219224632998037e-01 
3.0108617234468945e-02 6.1753857741892793e-01 4.0270367433166787e-01 2.8620677032223546e-01 2.1711784965939987e-01 1.7254660404426470e-01 1.4197433996934639e-01 
3.2112525050100205e-02 6.1543939802493519e-01 4.0145153752538171e-01 2.8538893417399447e-01 2.1656704476219865e-01 1.7218356059763282e-01 1.4175714879372786e-01 
3.4116432865731468e-02 6.1334675350598722e-01 4.0020362843733964e-01 2.8457413214735705e-01 2.1601837950208921e-01 1.7182188725435074e-01 1.4154066845323188e-01 
3.6120340681362731e-02 6.1126061492311090e-01 3.9895992201826302e-01 2.8376234260382766e-01 2.1547183742667256e-01 1.7146157387049341e-01 1.4132489463686881e-01 
3.8124248496993994e-02 6.0918095350194845e-01 3.9772039342291787e-01 2.8295354412010304e-01 2.1492740226118628e-01 1.7110261040883198e-01 1.4110982307212763e-01 
4.0128156312625257e-02 6.0710774063158390e-01 3.9648501800800795e-01 2.8214771548536854e-01 2.1438505790608942e-01 1.7074498693743051e-01 1.4089544952455652e-01 
4.2132064128256520e-02 6.0504094786338014e-01 3.9525377133009426e-01 2.8134483569863306e-01 2.1384478843468593e-01 1.7038869362826506e-01 1.4068176979734942e-01 
4.4135971943887783e-02 6.0298054690982428e-01 3.9402662914354059e-01 2.8054488396610566e-01 2.1330657809078854e-01 1.7003372075586534e-01 1.4046877973093877e-01 
4.6139879759519047e-02 6.0092650964338434e-01 3.9280356739848465e-01 2.7974783969861106e-01 2.1277041128641921e-01 1.6968005869597719e-01 1.4025647520259216e-01 
4.8143787575150310e-02 5.9887880809537419e-01 3.9158456223883376e-01 2.7895368250904445e-01 2.1223627259954850e-01 1.6932769792424657e-01 1.4004485212601567e-01 
5.0147695390781573e-02 5.9683741445482941e-01 3.9036959000028471e-01 2.7816239220986383e-01 2.1170414677186994e-01 1.6897662901492433e-01 1.3983390645096222e-01 
5.2151603206412836e-02 5.9480230106739151e-01 3.8915862720836880e-01 2.7737394881061983e-01 2.1117401870661298e-01 1.6862684263959155e-01 1.3962363416284490e-01 
5.4155511022044099e-02 5.9277344043420166e-01 3.8795165057652098e-01 2.7658833251552367e-01 2.1064587346638791e-01 1.6827832956590452e-01 1.3941403128235524e-01 
5.6159418837675362e-02 5.9075080521080414e-01 3.8674863700417106e-01 2.7580552372104938e-01 2.1011969627106880e-01 1.6793108065635950e-01 1.3920509386508745e-01 
5.8163326653306625e-02 5.8873436820605862e-01 3.8554956357485970e-01 2.7502550301357276e-01 2.0959547249570806e-01 1.6758508686707699e-01 1.3899681800116653e-01 
6.0167234468937889e-02 5.8672410238106198e-01 3.8435440755437750e-01 2.7424825116704488e-01 2.0907318766848579e-01 1.6724033924660509e-01 1.3878919981488200e-01 
6.2171142284569152e-02 5.8471998084807808e-01 3.8316314638892451e-01 2.7347374914070066e-01 2.0855282746869122e-01 1.6689682893474059e-01 1.3858223546432616e-01 
6.4175050100200415e-02 5.8272197686947724e-01 3.8197575770329445e-01 2.7270197807679997e-01 2.0803437772473646e-01 1.6655454716136958e-01 1.3837592114103731e-01 
6.6178957915831671e-02 5.8073006385668535e-01 3.8079221929907997e-01 2.7193291929840280e-01 2.0751782441220240e-01 1.6621348524532495e-01 1.3817025306964742e-01 
6.8182865731462927e-02 5.7874421536913889e-01 3.7961250915289924e-01 2.7116655430717701e-01 2.0700315365191438e-01 1.6587363459326235e-01 1.3796522750753484e-01 
7.0186773547094183e-02 5.7676440511325300e-01 3.7843660541464408e-01 2.7040286478123760e-01 2.0649035170804947e-01 1.6553498669855279e-01 1.3776084074448067e-01 
7.2190681362725440e-02 5.7479060694139283e-01 3.7726448640574989e-01 2.6964183257301783e-01 2.0597940498627329e-01 1.6519753314019262e-01 1.3755708910233103e-01 
7.4194589178356696e-02 5.7282279485085763e-01 3.7609613061748520e-01 2.6888343970717177e-01 2.0547030003190542e-01 1.6486126558173017e-01 1.3735396893466204e-01 
7.6198496993987952e-02 5.7086094298287215e-01 3.7493151670926206e-01 2.6812766837850632e-01 2.0496302352811507e-01 1.6452617577020862e-01 1.3715147662645072e-01 
7.8202404809619208e-02 5.6890502562158463e-01 3.7377062350696683e-01 2.6737450094994392e-01 2.0445756229414311e-01 1.6419225553512543e-01 1.3694960859374905e-01 
8.0206312625250464e-02 5.6695501719307506e-01 3.7261343000131147e-01 2.6662391995051449e-01 2.0395390328355359e-01 1.6385949678740694e-01 1.3674836128336298e-01 
8.2210220440881721e-02 5.6501089226437040e-01 3.7145991534620254e-01 2.6587590807337613e-01 2.0345203358251168e-01 1.6352789151839903e-01 1.3654773117253524e-01 
8.4214128256512977e-02 5.6307262554246940e-01 3.7031005885713214e-01 2.6513044817386472e-01 2.0295194040808801e-01 1.6319743179887294e-01 1.3634771476863192e-01 
8.6218036072144233e-02 5.6114019187337227e-01 3.6916384000958530e-01 2.6438752326757087e-01 2.0245361110659016e-01 1.6286810977804619e-01 1.3614830860883412e-01 
8.8221943887775489e-02 5.5921356624112262e-01 3.6802123843746842e-01 2.6364711652844475e-01 2.0195703315191943e-01 1.6253991768261775e-01 1.3594950925983235e-01 
9.0225851703406745e-02 5.5729272376685335e-01 3.6688223393155484e-01 2.6290921128692857e-01 2.0146219414395281e-01 1.6221284781581868e-01 1.3575131331752582e-01 
9.2229759519038002e-02 5.5537763970784249e-01 3.6574680643794938e-01 2.6217379102811417e-01 2.0096908180695006e-01 1.6188689255647562e-01 1.3555371740672509e-01 
9.4233667334669258e-02 5.5346828945657645e-01 3.6461493605657064e-01 2.6144083938992813e-01 2.0047768398798543e-01 1.6156204435809018e-01 1.3535671818085854e-01 
9.6237575150300514e-02 5.5156464853981935e-01 3.6348660303965113e-01 2.6071034016134209e-01 1.9998798865540304e-01 1.6123829574792986e-01 1.3516031232168291e-01 
9.8241482965931770e-02 5.4966669261769252e-01 3.6236178779025541e-01 2.5998227728060841e-01 1.9949998389729556e-01 1.6091563932613454e-01 1.3496449653899700e-01 
1.0024539078156303e-01 5.4777439748275980e-01 3.6124047086081490e-01 2.5925663483352085e-01 1.9901365792000719e-01 1.6059406776483467e-01 1.3476926757035973e-01 
1.0224929859719428e-01 5.4588773905911980e-01 3.6012263295168001e-01 2.5853339705169925e-01 1.9852899904665788e-01 1.6027357380728371e-01 1.3457462218081112e-01 
1.0425320641282554e-01 5.4400669340150654e-01 3.5900825490968968e-01 2.5781254831089934e-01 1.9804599571569098e-01 1.5995415026700255e-01 1.3438055716259723e-01 
1.0625711422845679e-01 5.4213123669439756e-01 3.5789731772675659e-01 2.5709407312934479e-01 1.9756463647944275e-01 1.5963579002693704e-01 1.3418706933489827e-01 
1.0826102204408805e-01 5.4026134525112834e-01 3.5678980253846931e-01 2.5637795616608416e-01 1.9708491000273257e-01 1.5931848603862769e-01 1.3399415554356073e-01 
1.1026492985971931e-01 5.3839699551301334e-01 3.5568569062271060e-01 2.5566418221936926e-01 1.9660680506147560e-01 1.5900223132139180e-01 1.3380181266083196e-01 
1.1226883767535056e-01 5.3653816404847687e-01 3.5458496339829210e-01 2.5495273622505732e-01 1.9613031054131527e-01 1.5868701896151732e-01 1.3361003758509907e-01 
1.1427274549098182e-01 5.3468482755218627e-01 3.5348760242360344e-01 2.5424360325503470e-01 1.9565541543627671e-01 1.5837284211146846e-01 1.3341882724063059e-01 
1.1627665330661308e-01 5.3283696284419835e-01 3.5239358939527843e-01 2.5353676851566231e-01 1.9518210884744033e-01 1.5805969398910349e-01 1.3322817857732125e-01 
1.1828056112224433e-01 5.3099454686910530e-01 3.5130290614687587e-01 2.5283221734624312e-01 1.9471037998163479e-01 1.5774756787690283e-01 1.3303808857044069e-01 
1.2028446893787559e-01 5.2915755669519371e-01 3.5021553464757521e-01 2.5212993521750998e-01 1.9424021815014977e-01 1.5743645712120949e-01 1.3284855422038419e-01 
1.2228837675350684e-01 5.2732596951360777e-01 3.4913145700088777e-01 2.5142990773013557e-01 1.9377161276746765e-01 1.5712635513147988e-01 1.3265957255242772e-01 
1.2429228456913810e-01 5.2549976263751719e-01 3.4805065544338187e-01 2.5073212061326094e-01 1.9330455335001392e-01 1.5681725537954536e-01 1.3247114061648529e-01 
1.2629619238476936e-01 5.2367891350129603e-01 3.4697311234342404e-01 2.5003655972304611e-01 1.9283902951492624e-01 1.5650915139888533e-01 1.3228325548686948e-01 
1.2830010020040061e-01 5.2186339965970396e-01 3.4589881019993196e-01 2.4934321104123872e-01 1.9237503097884115e-01 1.5620203678390920e-01 1.3209591426205508e-01 
1.3030400801603187e-01 5.2005319878707701e-01 3.4482773164114444e-01 2.4865206067376422e-01 1.9191254755669959e-01 1.5589590518925048e-01 1.3190911406444555e-01 
1.3230791583166313e-01 5.1824828867652295e-01 3.4375985942340331e-01 2.4796309484933302e-01 1.9145156916056841e-01 1.5559075032906952e-01 1.3172285204014267e-01 
1.3431182364729438e-01 5.1644864723912332e-01 3.4269517642995012e-01 2.4727629991806829e-01 1.9099208579848059e-01 1.5528656597636728e-01 1.3153712535871850e-01 
1.3631573146292564e-01 5.1465425250314267e-01 3.4163366566973569e-01 2.4659166235015145e-01 1.9053408757329152e-01 1.5498334596230814e-01 1.3135193121299077e-01 
1.3831963927855689e-01 5.1286508261324282e-01 3.4057531027624421e-01 2.4590916873448651e-01 1.9007756468155207e-01 1.5468108417555299e-01 1.3116726681880056e-01 
1.4032354709418815e-01 5.1108111582970417e-01 3.3952009350632889e-01 2.4522880577738182e-01 1.8962250741239847e-01 1.5437977456160096e-01 1.3098312941479320e-01 
1.4232745490981941e-01 5.0930233052765306e-01 3.3846799873906230e-01 2.4455056030125008e-01 1.8916890614645746e-01 1.5407941112214174e-01 1.3079951626220138e-01 
1.4433136272545066e-01 5.0752870519629389e-01 3.3741900947459907e-01 2.4387441924332556e-01 1.8871675135476806e-01 1.5377998791441552e-01 1.3061642464463130e-01 
1.4633527054108192e-01 5.0576021843815033e-01 3.3637310933305020e-01 2.4320036965439878e-01 1.8826603359771832e-01 1.5348149905058375e-01 1.3043385186785142e-01 
1.4833917835671317e-01 5.0399684896830776e-01 3.3533028205337234e-01 2.4252839869756759e-01 1.8781674352399799e-01 1.5318393869710697e-01 1.3025179525958339e-01 
1.5034308617234443e-01 5.0223857561366703e-01 3.3429051149226680e-01 2.4185849364700573e-01 1.8736887186956516e-01 1.5288730107413281e-01 1.3007025216929655e-01 
1.5234699398797569e-01 5.0048537731219966e-01 3.3325378162309299e-01 2.4119064188674658e-01 1.8692240945662930e-01 1.5259158045489168e-01 1.2988921996800354e-01 
1.5435090180360694e-01 4.9873723311221091e-01 3.3222007653479202e-01 2.4052483090948468e-01 1.8647734719264722e-01 1.5229677116510168e-01 1.2970869604805974e-01 
1.5635480961923820e-01 4.9699412217160854e-01 3.3118938043082419e-01 2.3986104831539160e-01 1.8603367606933419e-01 1.5200286758238118e-01 1.2952867782296412e-01 
1.5835871743486946e-01 4.9525602375717664e-01 3.3016167762811655e-01 2.3919928181094849e-01 1.8559138716168933e-01 1.5170986413566989e-01 1.2934916272716349e-01 
1.6036262525050071e-01 4.9352291724385533e-01 3.2913695255602299e-01 2.3853951920779362e-01 1.8515047162703427e-01 1.5141775530465804e-01 1.2917014821585843e-01 
1.6236653306613197e-01 4.9179478211402622e-01 3.2811518975529563e-01 2.3788174842158513e-01 1.8471092070406564e-01 1.5112653561922343e-01 1.2899163176481168e-01 
1.6437044088176322e-01 4.9007159795680322e-01 3.2709637387706791e-01 2.3722595747087899e-01 1.8427272571192138e-01 1.5083619965887635e-01 1.2881361087015927e-01 
1.6637434869739448e-01 4.8835334446732881e-01 3.2608048968184705e-01 2.3657213447602135e-01 1.8383587804925930e-01 1.5054674205221216e-01 1.2863608304822355e-01 
1.6837825651302574e-01 4.8664000144607594e-01 3.2506752203852091e-01 2.3592026765805560e-01 1.8340036919334973e-01 1.5025815747637136e-01 1.2845904583532872e-01 
1.7038216432865699e-01 4.8493154879815481e-01 3.2405745592337204e-01 2.3527034533764371e-01 1.8296619069918008e-01 1.4997044065650733e-01 1.2828249678761836e-01 
1.7238607214428825e-01 4.8322796653262545e-01 3.2305027641910511e-01 2.3462235593400149e-01 1.8253333419857221e-01 1.4968358636526116e-01 1.2810643348087541e-01 
1.7438997995991951e-01 4.8152923476181625e-01 3.2204596871388397e-01 2.3397628796384812e-01 1.8210179139931212e-01 1.4939758942224401e-01 1.2793085351034464e-01 
1.7639388777555076e-01 4.7983533370064479e-01 3.2104451810037904e-01 2.3333213004036849e-01 1.8167155408429261e-01 1.4911244469352608e-01 1.2775575449055609e-01 
1.7839779559118202e-01 4.7814624366594904e-01 3.2004590997482557e-01 2.3268987087219023e-01 1.8124261411066594e-01 1.4882814709113315e-01 1.2758113405515220e-01 
1.8040170340681327e-01 4.7646194507581779e-01 3.1905012983609121e-01 2.3204949926237278e-01 1.8081496340901065e-01 1.4854469157254979e-01 1.2740698985671614e-01 
1.8240561122244453e-01 4.7478241844893043e-01 3.1805716328475525e-01 2.3141100410741014e-01 1.8038859398250773e-01 1.4826207314022927e-01 1.2723331956660194e-01 
1.8440951903807579e-01 4.7310764440390024e-01 3.1706699602219635e-01 2.3077437439624648e-01 1.7996349790613025e-01 1.4798028684111020e-01 1.2706012087476778e-01 
1.8641342685370704e-01 4.7143760365862264e-01 3.1607961384969074e-01 2.3013959920930407e-01 1.7953966732584253e-01 1.4769932776613964e-01 1.2688739148961009e-01 
1.8841733466933830e-01 4.6977227702962837e-01 3.1509500266751972e-01 2.2950666771752420e-01 1.7911709445781121e-01 1.4741919104980325e-01 1.2671512913780031e-01 
1.9042124248496956e-01 4.6811164543144224e-01 3.1411314847408772e-01 2.2887556918142016e-01 1.7869577158762714e-01 1.4713987186966096e-01 1.2654333156412370e-01 
1.9242515030060081e-01 4.6645568987594521e-01 3.1313403736504858e-01 2.2824629295014151e-01 1.7827569106953781e-01 1.4686136544588965e-01 1.2637199653131972e-01 
1.9442905811623207e-01 4.6480439147174368e-01 3.1215765553244224e-01 2.2761882846055209e-01 1.7785684532569018e-01 1.4658366704083156e-01 1.2620112181992457e-01 
1.9643296593186332e-01 4.6315773142354089e-01 3.1118398926383994e-01 2.2699316523631821e-01 1.7743922684538416e-01 1.4630677195854913e-01 1.2603070522811549e-01 
1.9843687374749458e-01 4.6151569103151557e-01 3.1021302494149916e-01 2.2636929288700899e-01 1.7702282818433626e-01 1.4603067554438559e-01 1.2586074457155702e-01 
2.0044078156312584e-01 4.5987825169070273e-01 3.0924474904152660e-01 2.2574720110720820e-01 1.7660764196395293e-01 1.4575537318453172e-01 1.2569123768324925e-01 
2.0244468937875709e-01 4.5824539489038174e-01 3.0827914813305185e-01 2.2512687967563702e-01 1.7619366087061444e-01 1.4548086030559812e-01 1.2552218241337754e-01 
2.0444859719438835e-01 4.5661710221346669e-01 3.0731620887740740e-01 2.2450831845428887e-01 1.7578087765496794e-01 1.4520713237419350e-01 1.2535357662916438e-01 
2.0645250501001960e-01 4.5499335533590224e-01 3.0635591802731976e-01 2.2389150738757330e-01 1.7536928513122985e-01 1.4493418489650861e-01 1.2518541821472298e-01 
2.0845641282565086e-01 4.5337413602606552e-01 3.0539826242610740e-01 2.2327643650147269e-01 1.7495887617649930e-01 1.4466201341790538e-01 1.2501770507091231e-01 
2.1046032064128212e-01 4.5175942614416909e-01 3.0444322900688825e-01 2.2266309590270822e-01 1.7454964373007828e-01 1.4439061352251220e-01 1.2485043511519434e-01 
2.1246422845691337e-01 4.5014920764167121e-01 3.0349080479179436e-01 2.2205147577791690e-01 1.7414158079280348e-01 1.4411998083282385e-01 1.2468360628149271e-01 
2.1446813627254463e-01 4.4854346256069005e-01 3.0254097689119686e-01 2.2144156639283877e-01 1.7373468042638557e-01 1.4385011100930761e-01 1.2451721652005307e-01 
2.1647204408817589e-01 4.4694217303342093e-01 3.0159373250293703e-01 2.2083335809151405e-01 1.7332893575275768e-01 1.4358099975001365e-01 1.2435126379730531e-01 
2.1847595190380714e-01 4.4534532128155951e-01 3.0064905891156607e-01 2.2022684129549083e-01 1.7292433995343315e-01 1.4331264279019157e-01 1.2418574609572731e-01 
2.2047985971943840e-01 4.4375288961572734e-01 2.9970694348759364e-01 2.1962200650304214e-01 1.7252088626887135e-01 1.4304503590191125e-01 1.2402066141371040e-01 
2.2248376753506965e-01 4.4216486043490449e-01 2.9876737368674317e-01 2.1901884428839277e-01 1.7211856799785205e-01 1.4277817489368921e-01 1.2385600776542609e-01 
2.2448767535070091e-01 4.4058121622586321e-01 2.9783033704921569e-01 2.1841734530095624e-01 1.7171737849685834e-01 1.4251205561011993e-01 1.2369178318069506e-01 
2.2649158316633217e-01 4.3900193956260786e-01 2.9689582119896107e-01 2.1781750026458063e-01 1.7131731117946777e-01 1.4224667393151136e-01 1.2352798570485725e-01 
2.2849549098196342e-01 4.3742701310581855e-01 2.9596381384295689e-01 2.1721929997680411e-01 1.7091835951575138e-01 1.4198202577352648e-01 1.2336461339864341e-01 
2.3049939879759468e-01 4.3585641960229832e-01 2.9503430277049442e-01 2.1662273530811949e-01 1.7052051703168097e-01 1.4171810708682842e-01 1.2320166433804863e-01 
2.3250330661322594e-01 4.3429014188442505e-01 2.9410727585247309e-01 2.1602779720124748e-01 1.7012377730854406e-01 1.4145491385673084e-01 1.2303913661420714e-01 
2.3450721442885719e-01 4.3272816286960686e-01 2.9318272104070103e-01 2.1543447667042043e-01 1.6972813398236672e-01 1.4119244210285292e-01 1.2287702833326850e-01 
2.3651112224448845e-01 4.3117046555974142e-01 2.9226062636720340e-01 2.1484276480067235e-01 1.6933358074334390e-01 1.4093068787877880e-01 1.2271533761627554e-01 
2.3851503006011970e-01 4.2961703304068055e-01 2.9134097994353819e-01 2.1425265274714003e-01 1.6894011133527748e-01 1.4066964727172132e-01 1.2255406259904353e-01 
2.4051893787575096e-01 4.2806784848169643e-01 2.9042376996011887e-01 2.1366413173437171e-01 1.6854771955502154e-01 1.4040931640219062e-01 1.2239320143204115e-01 
2.4252284569138222e-01 4.2652289513495406e-01 2.8950898468554326e-01 2.1307719305564360e-01 1.6815639925193526e-01 1.4014969142366657e-01 1.2223275228027236e-01 
2.4452675350701347e-01 4.2498215633498532e-01 2.8859661246593066e-01 2.1249182807228603e-01 1.6776614432734255e-01 1.3989076852227589e-01 1.2207271332316011e-01 
2.4653066132264473e-01 4.2344561549816889e-01 2.8768664172426422e-01 2.1190802821301707e-01 1.6737694873399911e-01 1.3963254391647340e-01 1.2191308275443162e-01 
2.4853456913827598e-01 4.2191325612221314e-01 2.8677906095974237e-01 2.1132578497328439e-01 1.6698880647556641e-01 1.3937501385672732e-01 1.2175385878200427e-01 
2.5053847695390724e-01 4.2038506178564133e-01 2.8587385874713400e-01 2.1074508991461499e-01 1.6660171160609250e-01 1.3911817462520892e-01 1.2159503962787373e-01 
2.5254238476953850e-01 4.1886101614728399e-01 2.8497102373614236e-01 2.1016593466397310e-01 1.6621565822949996e-01 1.3886202253548616e-01 1.2143662352800290e-01 
2.5454629258516975e-01 4.1734110294577037e-01 2.8407054465077480e-01 2.0958831091312571e-01 1.6583064049907978e-01 1.3860655393222074e-01 1.2127860873221251e-01 
2.5655020040080101e-01 4.1582530599902823e-01 2.8317241028871876e-01 2.0901221041801596e-01 1.6544665261699271e-01 1.3835176519087050e-01 1.2112099350407279e-01 
2.5855410821643227e-01 4.1431360920378335e-01 2.8227660952072436e-01 2.0843762499814369e-01 1.6506368883377653e-01 1.3809765271739419e-01 1.2096377612079669e-01 
2.6055801603206352e-01 4.1280599653506567e-01 2.8138313128999320e-01 2.0786454653595407e-01 1.6468174344786010e-01 1.3784421294796098e-01 1.2080695487313407e-01 
2.6256192384769478e-01 4.1130245204571647e-01 2.8049196461157316e-01 2.0729296697623303e-01 1.6430081080508344e-01 1.3759144234866358e-01 1.2065052806526762e-01 
2.6456583166332603e-01 4.0980295986590082e-01 2.7960309857175991e-01 2.0672287832551031e-01 1.6392088529822424e-01 1.3733933741523513e-01 1.2049449401470971e-01 
2.6656973947895729e-01 4.0830750420262252e-01 2.7871652232750377e-01 2.0615427265146971e-01 1.6354196136653029e-01 1.3708789467276941e-01 1.2033885105220052e-01 
2.6857364729458855e-01 4.0681606933924369e-01 2.7783222510582289e-01 2.0558714208236606e-01 1.6316403349525868e-01 1.3683711067544541e-01 1.2018359752160759e-01 
2.7057755511021980e-01 4.0532863963500571e-01 2.7695019620322275e-01 2.0502147880644980e-01 1.6278709621521967e-01 1.3658698200625480e-01 1.2002873177982661e-01 
2.7258146292585106e-01 4.0384519952455583e-01 2.7607042498512052e-01 2.0445727507139769e-01 1.6241114410232776e-01 1.3633750527673319e-01 1.1987425219668303e-01 
2.7458537074148232e-01 4.0236573351747557e-01 2.7519290088527637e-01 2.0389452318375126e-01 1.6203617177715809e-01 1.3608867712669528e-01 1.1972015715483532e-01 
2.7658927855711357e-01 4.0089022619781406e-01 2.7431761340522970e-01 2.0333321550836081e-01 1.6166217390450802e-01 1.3584049422397282e-01 1.1956644504967948e-01 
2.7859318637274483e-01 3.9941866222362166e-01 2.7344455211374125e-01 2.0277334446783735e-01 1.6128914519296539e-01 1.3559295326415630e-01 1.1941311428925397e-01 
2.8059709418837608e-01 3.9795102632649110e-01 2.7257370664624109e-01 2.0221490254200983e-01 1.6091708039448158e-01 1.3534605097034022e-01 1.1926016329414690e-01 
2.8260100200400734e-01 3.9648730331109783e-01 2.7170506670428146e-01 2.0165788226739012e-01 1.6054597430395043e-01 1.3509978409287116e-01 1.1910759049740348e-01 
2.8460490981963860e-01 3.9502747805474686e-01 2.7083862205499593e-01 2.0110227623664270e-01 1.6017582175879239e-01 1.3485414940909948e-01 1.1895539434443515e-01 
2.8660881763526985e-01 3.9357153550691998e-01 2.6997436253056334e-01 2.0054807709806280e-01 1.5980661763854412e-01 1.3460914372313451e-01 1.1880357329292932e-01 
2.8861272545090111e-01 3.9211946068882880e-01 2.6911227802767723e-01 1.9999527755505839e-01 1.5943835686445357e-01 1.3436476386560225e-01 1.1865212581276111e-01 
2.9061663326653236e-01 3.9067123869296827e-01 2.6825235850702112e-01 1.9944387036564024e-01 1.5907103439907982e-01 1.3412100669340671e-01 1.1850105038590507e-01 
2.9262054108216362e-01 3.8922685468267582e-01 2.6739459399274756e-01 1.9889384834191709e-01 1.5870464524589842e-01 1.3387786908949437e-01 1.1835034550634897e-01 
2.9462444889779488e-01 3.8778629389169172e-01 2.6653897457196429e-01 1.9834520434959690e-01 1.5833918444891171e-01 1.3363534796262144e-01 1.1820000968000788e-01 
2.9662835671342613e-01 3.8634954162372415e-01 2.6568549039422396e-01 1.9779793130749398e-01 1.5797464709226430e-01 1.3339344024712466e-01 1.1805004142464016e-01 
2.9863226452905739e-01 3.8491658325201444e-01 2.6483413167101993e-01 1.9725202218704252e-01 1.5761102829986276e-01 1.3315214290269423e-01 1.1790043926976379e-01 
3.0063617234468865e-01 3.8348740421890976e-01 2.6398488867528602e-01 1.9670747001181435e-01 1.5724832323500146e-01 1.3291145291415085e-01 1.1775120175657414e-01 
3.0264008016031990e-01 3.8206199003543395e-01 2.6313775174090231e-01 1.9616426785704486e-01 1.5688652709999196e-01 1.3267136729122453e-01 1.1760232743786256e-01 
3.0464398797595116e-01 3.8064032628086564e-01 2.6229271126220521e-01 1.9562240884916174e-01 1.5652563513579809e-01 1.3243188306833720e-01 1.1745381487793627e-01 
3.0664789579158241e-01 3.7922239860231544e-01 2.6144975769350243e-01 1.9508188616532163e-01 1.5616564262167501e-01 1.3219299730438783e-01 1.1730566265253918e-01 
3.0865180360721367e-01 3.7780819271430921e-01 2.6060888154859257e-01 1.9454269303295033e-01 1.5580654487481341e-01 1.3195470708254009e-01 1.1715786934877338e-01 
3.1065571142284493e-01 3.7639769439837228e-01 2.5977007340029035e-01 1.9400482272929040e-01 1.5544833724998791e-01 1.3171700951001339e-01 1.1701043356502219e-01 
3.1265961923847618e-01 3.7499088950261722e-01 2.5893332387995505e-01 1.9346826858095145e-01 1.5509101513921028e-01 1.3147990171787616e-01 1.1686335391087402e-01 
3.1466352705410744e-01 3.7358776394133447e-01 2.5809862367702474e-01 1.9293302396346890e-01 1.5473457397138696e-01 1.3124338086084225e-01 1.1671662900704698e-01 
3.1666743486973870e-01 3.7218830369458533e-01 2.5726596353855513e-01 1.9239908230086508e-01 1.5437900921198097e-01 1.3100744411706952e-01 1.1657025748531440e-01 
3.1867134268536995e-01 3.7079249480779830e-01 2.5643533426876169e-01 1.9186643706521742e-01 1.5402431636267805e-01 1.3077208868796178e-01 1.1642423798843221e-01 
3.2067525050100121e-01 3.6940032339136797e-01 2.5560672672856755e-01 1.9133508177623038e-01 1.5367049096105737e-01 1.3053731179797270e-01 1.1627856917006597e-01 
3.2267915831663246e-01 3.6801177562025622e-01 2.5478013183515547e-01 1.9080501000081343e-01 1.5331752858026612e-01 1.3030311069441267e-01 1.1613324969471986e-01 
3.2468306613226372e-01 3.6662683773359694e-01 2.5395554056152414e-01 1.9027621535266334e-01 1.5296542482869879e-01 1.3006948264725823e-01 1.1598827823766629e-01 
3.2668697394789498e-01 3.6524549603430256e-01 2.5313294393604852e-01 1.8974869149185192e-01 1.5261417534967997e-01 1.2983642494896397e-01 1.1584365348487623e-01 
3.2869088176352623e-01 3.6386773688867396e-01 2.5231233304204520e-01 1.8922243212441769e-01 1.5226377582115158e-01 1.2960393491427680e-01 1.1569937413295053e-01 
3.3069478957915749e-01 3.6249354672601281e-01 2.5149369901734092e-01 1.8869743100196340e-01 1.5191422195536419e-01 1.2937200988005315e-01 1.1555543888905294e-01 
3.3269869739478874e-01 3.6112291203823632e-01 2.5067703305384675e-01 1.8817368192125730e-01 1.5156550949857223e-01 1.2914064720507781e-01 1.1541184647084260e-01 
3.3470260521042000e-01 3.5975581937949430e-01 2.4986232639713510e-01 1.8765117872384052e-01 1.5121763423073262e-01 1.2890984426988641e-01 1.1526859560640881e-01 
3.3670651302605126e-01 3.5839225536579011e-01 2.4904957034602135e-01 1.8712991529563680e-01 1.5087059196520866e-01 1.2867959847658886e-01 1.1512568503420573e-01 
3.3871042084168251e-01 3.5703220667460245e-01 2.4823875625214989e-01 1.8660988556656929e-01 1.5052437854847606e-01 1.2844990724869662e-01 1.1498311350298873e-01 
3.4071432865731377e-01 3.5567566004451034e-01 2.4742987551958373e-01 1.8609108351017967e-01 1.5017898985983374e-01 1.2822076803095112e-01 1.1484087977175071e-01 
3.4271823647294503e-01 3.5432260227482232e-01 2.4662291960439817e-01 1.8557350314325352e-01 1.4983442181111883e-01 1.2799217828915518e-01 1.1469898260966063e-01 
3.4472214428857628e-01 3.5297302022520427e-01 2.4581788001427923e-01 1.8505713852544903e-01 1.4949067034642388e-01 1.2776413551000654e-01 1.1455742079600126e-01 
3.4672605210420754e-01 3.5162690081531400e-01 2.4501474830812361e-01 1.8454198375893005e-01 1.4914773144181925e-01 1.2753663720093378e-01 1.1441619312010932e-01 
3.4872995991983879e-01 3.5028423102443496e-01 2.4421351609564645e-01 1.8402803298800421e-01 1.4880560110507818e-01 1.2730968088993433e-01 1.1427529838131546e-01 
3.5073386773547005e-01 3.4894499789111422e-01 2.4341417503698876e-01 1.8351528039876469e-01 1.4846427537540591e-01 1.2708326412541460e-01 1.1413473538888551e-01 
3.5273777555110131e-01 3.4760918851280237e-01 2.4261671684233163e-01 1.8300372021873607e-01 1.4812375032317215e-01 1.2685738447603295e-01 1.1399450296196263e-01 
3.5474168336673256e-01 3.4627679004549572e-01 2.4182113327151247e-01 1.8249334671652495e-01 1.4778402204964694e-01 1.2663203953054389e-01 1.1385459992951008e-01 
3.5674559118236382e-01 3.4494778970338036e-01 2.4102741613364642e-01 1.8198415420147437e-01 1.4744508668674045e-01 1.2640722689764541e-01 1.1371502513025479e-01 
3.5874949899799508e-01 3.4362217475848000e-01 2.4023555728674992e-01 1.8147613702332205e-01 1.4710694039674571e-01 1.2618294420582768e-01 1.1357577741263235e-01 
3.6075340681362633e-01 3.4229993254030461e-01 2.3944554863736894e-01 1.8096928957186331e-01 1.4676957937208474e-01 1.2595918910322432e-01 1.1343685563473160e-01 
3.6275731462925759e-01 3.4098105043550220e-01 2.3865738214021051e-01 1.8046360627661717e-01 1.4643299983505828e-01 1.2573595925746578e-01 1.1329825866424163e-01 
3.6476122244488884e-01 3.3966551588751231e-01 2.3787104979777782e-01 1.7995908160649698e-01 1.4609719803759907e-01 1.2551325235553432e-01 1.1315998537839816e-01 
3.6676513026052010e-01 3.3835331639622279e-01 2.3708654366000928e-01 1.7945571006948510e-01 1.4576217026102750e-01 1.2529106610362181e-01 1.1302203466393165e-01 
3.6876903807615136e-01 3.3704443951762725e-01 2.3630385582391980e-01 1.7895348621231053e-01 1.4542791281581172e-01 1.2506939822698904e-01 1.1288440541701565e-01 
3.7077294589178261e-01 3.3573887286348664e-01 2.3552297843324757e-01 1.7845240462013140e-01 1.4509442204132983e-01 1.2484824646982701e-01 1.1274709654321638e-01 
3.7277685370741387e-01 3.3443660410099108e-01 2.3474390367810219e-01 1.7795245991622097e-01 1.4476169430563618e-01 1.2462760859512072e-01 1.1261010695744279e-01 
3.7478076152304513e-01 3.3313762095242566e-01 2.3396662379461786e-01 1.7745364676165656e-01 1.4442972600522994e-01 1.2440748238451442e-01 1.1247343558389761e-01 
3.7678466933867638e-01 3.3184191119483653e-01 2.3319113106460898e-01 1.7695595985501358e-01 1.4409851356482764e-01 1.2418786563817917e-01 1.1233708135602888e-01 
3.7878857715430764e-01 3.3054946265970159e-01 2.3241741781522920e-01 1.7645939393206200e-01 1.4376805343713842e-01 1.2396875617468224e-01 1.1220104321648285e-01 
3.8079248496993889e-01 3.2926026323260055e-01 2.3164547641863467e-01 1.7596394376546717e-01 1.4343834210264189e-01 1.2375015183085837e-01 1.1206532011705689e-01 
3.8279639278557015e-01 3.2797430085288914e-01 2.3087529929164904e-01 1.7546960416449398e-01 1.4310937606936988e-01 1.2353205046168318e-01 1.1192991101865368e-01 
3.8480030060120141e-01 3.2669156351337497e-01 2.3010687889543260e-01 1.7497636997471477e-01 1.4278115187269078e-01 1.2331444994014827e-01 1.1179481489123612e-01 
3.8680420841683266e-01 3.2541203925999446e-01 2.2934020773515573e-01 1.7448423607772034e-01 1.4245366607509627e-01 1.2309734815713842e-01 1.1166003071378287e-01 
3.8880811623246392e-01 3.2413571619149334e-01 2.2857527835967281e-01 1.7399319739083491e-01 1.4212691526599236e-01 1.2288074302131027e-01 1.1152555747424461e-01 
3.9081202404809517e-01 3.2286258245910832e-01 2.2781208336120204e-01 1.7350324886683446e-01 1.4180089606149174e-01 1.2266463245897351e-01 1.1139139416950133e-01 
3.9281593186372643e-01 3.2159262626625007e-01 2.2705061537500695e-01 1.7301438549366802e-01 1.4147560510421048e-01 1.2244901441397327e-01 1.1125753980531991e-01 
3.9481983967935769e-01 3.2032583586819069e-01 2.2629086707908094e-01 1.7252660229418346e-01 1.4115103906306639e-01 1.2223388684757479e-01 1.1112399339631293e-01 
3.9682374749498894e-01 3.1906219957175042e-01 2.2553283119383605e-01 1.7203989432585512e-01 1.4082719463308135e-01 1.2201924773834982e-01 1.1099075396589800e-01 
3.9882765531062020e-01 3.1780170573498734e-01 2.2477650048179348e-01 1.7155425668051630e-01 1.4050406853518513e-01 1.2180509508206448e-01 1.1085782054625759e-01 
4.0083156312625146e-01 3.1654434276688975e-01 2.2402186774727781e-01 1.7106968448409390e-01 1.4018165751602343e-01 1.2159142689156953e-01 1.1072519217830031e-01 
4.0283547094188271e-01 3.1529009912707018e-01 2.2326892583611416e-01 1.7058617289634689e-01 1.3985995834776752e-01 1.2137824119669198e-01 1.1059286791162191e-01 
4.0483937875751397e-01 3.1403896332545961e-01 2.2251766763532821e-01 1.7010371711060837e-01 1.3953896782792743e-01 1.2116553604412861e-01 1.1046084680446801e-01 
4.0684328657314522e-01 3.1279092392200714e-01 2.2176808607284970e-01 1.6962231235352954e-01 1.3921868277916719e-01 1.2095330949734108e-01 1.1032912792369701e-01 
4.0884719438877648e-01 3.1154596952637736e-01 2.2102017411721797e-01 1.6914195388482844e-01 1.3889910004912334e-01 1.2074155963645343e-01 1.1019771034474353e-01 
4.1085110220440774e-01 3.1030408879765348e-01 2.2027392477729063e-01 1.6866263699704109e-01 1.3858021651022592e-01 1.2053028455815025e-01 1.1006659315158325e-01 
4.1285501002003899e-01 3.0906527044403925e-01 2.1952933110195633e-01 1.6818435701527573e-01 1.3826202905952201e-01 1.2031948237557770e-01 1.0993577543669801e-01 
4.1485891783567025e-01 3.0782950322256464e-01 2.1878638617984836e-01 1.6770710929697008e-01 1.3794453461850203e-01 1.2010915121824547e-01 1.0980525630104156e-01 
4.1686282565130151e-01 3.0659677593879320e-01 2.1804508313906290e-01 1.6723088923165241e-01 1.3762773013292862e-01 1.1989928923193072e-01 1.0967503485400630e-01 
4.1886673346693276e-01 3.0536707744652958e-01 2.1730541514687876e-01 1.6675569224070472e-01 1.3731161257266800e-01 1.1968989457858387e-01 1.0954511021339065e-01 
4.2087064128256402e-01 3.0414039664753134e-01 2.1656737540948140e-01 1.6628151377712980e-01 1.3699617893152446e-01 1.1948096543623585e-01 1.0941548150536710e-01 
4.2287454909819527e-01 3.0291672249122059e-01 2.1583095717168782e-01 1.6580834932532060e-01 1.3668142622707652e-01 1.1927249999890717e-01 1.0928614786445082e-01 
4.2487845691382653e-01 3.0169604397439814e-01 2.1509615371667570e-01 1.6533619440083344e-01 1.3636735150051657e-01 1.1906449647651855e-01 1.0915710843346936e-01 
4.2688236472945779e-01 3.0047835014095947e-01 2.1436295836571534e-01 1.6486504455016296e-01 1.3605395181649232e-01 1.1885695309480337e-01 1.0902836236353269e-01 
4.2888627254508904e-01 2.9926363008161283e-01 2.1363136447790262e-01 1.6439489535052179e-01 1.3574122426295113e-01 1.1864986809522178e-01 1.0889990881400417e-01 
4.3089018036072030e-01 2.9805187293359792e-01 2.1290136544989685e-01 1.6392574240962129e-01 1.3542916595098711e-01 1.1844323973487621e-01 1.0877174695247221e-01 
4.3289408817635155e-01 2.9684306788040710e-01 2.1217295471566003e-01 1.6345758136545660e-01 1.3511777401468975e-01 1.1823706628642909e-01 1.0864387595472241e-01 
4.3489799599198281e-01 2.9563720415150885e-01 2.1144612574619875e-01 1.6299040788609384e-01 1.3480704561099643e-01 1.1803134603802122e-01 1.0851629500471070e-01 
4.3690190380761407e-01 2.9443427102207148e-01 2.1072087204930942e-01 1.6252421766946065e-01 1.3449697791954601e-01 1.1782607729319326e-01 1.0838900329453711e-01 
4.3890581162324532e-01 2.9323425781268964e-01 2.0999718716932531e-01 1.6205900644313909e-01 1.3418756814253596e-01 1.1762125837080729e-01 1.0826200002442010e-01 
4.4090971943887658e-01 2.9203715388911217e-01 2.0927506468686746e-01 1.6159476996416222e-01 1.3387881350458114e-01 1.1741688760497106e-01 1.0813528440267173e-01 
4.4291362725450784e-01 2.9084294866197175e-01 2.0855449821859634e-01 1.6113150401881246e-01 1.3357071125257564e-01 1.1721296334496335e-01 1.0800885564567353e-01 
4.4491753507013909e-01 2.8965163158651602e-01 2.0783548141696778e-01 1.6066920442242352e-01 1.3326325865555660e-01 1.1700948395516141e-01 1.0788271297785298e-01 
4.4692144288577035e-01 2.8846319216233990e-01 2.0711800796999058e-01 1.6020786701918527e-01 1.3295645300457073e-01 1.1680644781496939e-01 1.0775685563166085e-01 
4.4892535070140160e-01 2.8727761993312062e-01 2.0640207160098717e-01 1.5974748768195035e-01 1.3265029161254288e-01 1.1660385331874898e-01 1.0763128284754893e-01 
4.5092925851703286e-01 2.8609490448635383e-01 2.0568766606835637e-01 1.5928806231204498e-01 1.3234477181414742e-01 1.1640169887575125e-01 1.0750599387394914e-01 
4.5293316633266412e-01 2.8491503545309055e-01 2.0497478516533868e-01 1.5882958683908149e-01 1.3203989096568186e-01 1.1619998291005029e-01 1.0738098796725229e-01 
4.5493707414829537e-01 2.8373800250767661e-01 2.0426342271978473e-01 1.5837205722077394e-01 1.3173564644494273e-01 1.1599870386047854e-01 1.0725626439178866e-01 
4.5694098196392663e-01 2.8256379536749399e-01 2.0355357259392545e-01 1.5791546944275672e-01 1.3143203565110376e-01 1.1579786018056354e-01 1.0713182241980851e-01 
4.5894488977955789e-01 2.8139240379270225e-01 2.0284522868414512e-01 1.5745981951840557e-01 1.3112905600459676e-01 1.1559745033846611e-01 1.0700766133146354e-01 
4.6094879759518914e-01 2.8022381758598325e-01 2.0213838492075706e-01 1.5700510348866134e-01 1.3082670494699469e-01 1.1539747281692082e-01 1.0688378041478910e-01 
4.6295270541082040e-01 2.7905802659228612e-01 2.0143303526778111e-01 1.5655131742185663e-01 1.3052497994089721e-01 1.1519792611317727e-01 1.0676017896568739e-01 
4.6495661322645165e-01 2.7789502069857430e-01 2.0072917372272450e-01 1.5609845741354511e-01 1.3022387846981787e-01 1.1499880873894340e-01 1.0663685628791049e-01 
4.6696052104208291e-01 2.7673478983357391e-01 2.0002679431636469e-01 1.5564651958633338e-01 1.2992339803807484e-01 1.1480011922033051e-01 1.0651381169304515e-01 
4.6896442885771417e-01 2.7557732396752382e-01 1.9932589111253424e-01 1.5519550008971594e-01 1.2962353617068306e-01 1.1460185609779922e-01 1.0639104450049754e-01 
4.7096833667334542e-01 2.7442261311192745e-01 1.9862645820790897e-01 1.5474539509991189e-01 1.2932429041324928e-01 1.1440401792610817e-01 1.0626855403747917e-01 
4.7297224448897668e-01 2.7327064731930517e-01 1.9792848973179789e-01 1.5429620081970594e-01 1.2902565833186877e-01 1.1420660327426303e-01 1.0614633963899325e-01 
4.7497615230460793e-01 2.7212141668294931e-01 1.9723197984593605e-01 1.5384791347829019e-01 1.2872763751302532e-01 1.1400961072546811e-01 1.0602440064782187e-01 
4.7698006012023919e-01 2.7097491133667934e-01 1.9653692274427909e-01 1.5340052933111017e-01 1.2843022556349259e-01 1.1381303887707912e-01 1.0590273641451385e-01 
4.7898396793587045e-01 2.6983112145460003e-01 1.9584331265280114e-01 1.5295404465971241e-01 1.2813342011023868e-01 1.1361688634055762e-01 1.0578134629737361e-01 
4.8098787575150170e-01 2.6869003725085983e-01 1.9515114382929438e-01 1.5250845577159566e-01 1.2783721880033228e-01 1.1342115174142713e-01 1.0566022966245002e-01 
4.8299178356713296e-01 2.6755164897941119e-01 1.9446041056317098e-01 1.5206375900006400e-01 1.2754161930085178e-01 1.1322583371923080e-01 1.0553938588352695e-01 
4.8499569138276422e-01 2.6641594693377235e-01 1.9377110717526805e-01 1.5161995070408277e-01 1.2724661929879624e-01 1.1303093092749072e-01 1.0541881434211386e-01 
4.8699959919839547e-01 2.6528292144679017e-01 1.9308322801765446e-01 1.5117702726813778e-01 1.2695221650099922e-01 1.1283644203366910e-01 1.0529851442743728e-01 
4.8900350701402673e-01 2.6415256289040517e-01 1.9239676747344064e-01 1.5073498510209601e-01 1.2665840863404429e-01 1.1264236571913035e-01 1.0517848553643323e-01 
4.9100741482965798e-01 2.6302486167541722e-01 1.9171171995658925e-01 1.5029382064107041e-01 1.2636519344418348e-01 1.1244870067910587e-01 1.0505872707374002e-01 
4.9301132264528924e-01 2.6189980825125236e-01 1.9102807991173040e-01 1.4985353034528601e-01 1.2607256869725800e-01 1.1225544562265954e-01 1.0493923845169220e-01 
4.9501523046092050e-01 2.6077739310573272e-01 1.9034584181397760e-01 1.4941411069994975e-01 1.2578053217862104e-01 1.1206259927265551e-01 1.0482001909031498e-01 
4.9701913827655175e-01 2.5965760676484512e-01 1.8966500016874660e-01 1.4897555821512229e-01 1.2548908169306316e-01 1.1187016036572710e-01 1.0470106841731940e-01 
4.9902304609218301e-01 2.5854043979251401e-01 1.8898554951157706e-01 1.4853786942559274e-01 1.2519821506474005e-01 1.1167812765224776e-01 1.0458238586809841e-01 
5.0102695390781427e-01 2.5742588279037326e-01 1.8830748440795558e-01 1.4810104089075654e-01 1.2490793013710258e-01 1.1148649989630385e-01 1.0446397088572364e-01 
5.0303086172344558e-01 2.5631392639754103e-01 1.8763079945314237e-01 1.4766506919449493e-01 1.2461822477282951e-01 1.1129527587566834e-01 1.0434582292094274e-01 
5.0503476953907689e-01 2.5520456129039526e-01 1.8695548927199920e-01 1.4722995094505831e-01 1.2432909685376213e-01 1.1110445438177714e-01 1.0422794143217805e-01 
5.0703867735470820e-01 2.5409777818235008e-01 1.8628154851882028e-01 1.4679568277495156e-01 1.2404054428084203e-01 1.1091403421970648e-01 1.0411032588552517e-01 
5.0904258517033951e-01 2.5299356782363480e-01 1.8560897187716552e-01 1.4636226134082250e-01 1.2375256497405057e-01 1.1072401420815224e-01 1.0399297575475311e-01 
5.1104649298597082e-01 2.5189192100107327e-01 1.8493775405969617e-01 1.4592968332335246e-01 1.2346515687235111e-01 1.1053439317941111e-01 1.0387589052130486e-01 
5.1305040080160214e-01 2.5079282853786466e-01 1.8426788980801279e-01 1.4549794542715067e-01 1.2317831793363394e-01 1.1034516997936307e-01 1.0375906967429864e-01 
5.1505430861723345e-01 2.4969628129336588e-01 1.8359937389249509e-01 1.4506704438065005e-01 1.2289204613466334e-01 1.1015634346745620e-01 1.0364251271053025e-01 
5.1705821643286476e-01 2.4860227016287526e-01 1.8293220111214595e-01 1.4463697693600697e-01 1.2260633947102724e-01 1.0996791251669287e-01 1.0352621913447599e-01 
5.1906212424849607e-01 2.4751078607741767e-01 1.8226636629443529e-01 1.4420773986900315e-01 1.2232119595708932e-01 1.0977987601361755e-01 1.0341018845829639e-01 
5.2106603206412738e-01 2.4642182000353025e-01 1.8160186429514885e-01 1.4377932997895054e-01 1.2203661362594391e-01 1.0959223285830706e-01 1.0329442020184088e-01 
5.2306993987975869e-01 2.4533536294305067e-01 1.8093868999823767e-01 1.4335174408859880e-01 1.2175259052937308e-01 1.0940498196436177e-01 1.0317891389265321e-01 
5.2507384769539001e-01 2.4425140593290556e-01 1.8027683831567062e-01 1.4292497904404600e-01 1.2146912473780654e-01 1.0921812225889925e-01 1.0306366906597754e-01 
5.2707775551102132e-01 2.4316994004490070e-01 1.7961630418729005e-01 1.4249903171465195e-01 1.2118621434028379e-01 1.0903165268254951e-01 1.0294868526476576e-01 
5.2908166332665263e-01 2.4209095638551303e-01 1.7895708258066872e-01 1.4207389899295425e-01 1.2090385744441967e-01 1.0884557218945214e-01 1.0283396203968509e-01 
5.3108557114228394e-01 2.4101444609568290e-01 1.7829916849097008e-01 1.4164957779458762e-01 1.2062205217637127e-01 1.0865987974725513e-01 1.0271949894912694e-01 
5.3308947895791525e-01 2.3994040035060873e-01 1.7764255694081071e-01 1.4122606505820576e-01 1.2034079668080877e-01 1.0847457433711602e-01 1.0260529555921653e-01 
5.3509338677354656e-01 2.3886881035954202e-01 1.7698724298012550e-01 1.4080335774540659e-01 1.2006008912088816e-01 1.0828965495370432e-01 1.0249135144382349e-01 
5.3709729458917788e-01 2.3779966736558425e-01 1.7633322168603527e-01 1.4038145284065975e-01 1.1977992767822687e-01 1.0810512060520645e-01 1.0237766618457245e-01 
5.3910120240480919e-01 2.3673296264548530e-01 1.7568048816271661e-01 1.3996034735123802e-01 1.1950031055288236e-01 1.0792097031333218e-01 1.0226423937085634e-01 
5.4110511022044050e-01 2.3566868750944223e-01 1.7502903754127505e-01 1.3954003830715095e-01 1.1922123596333296e-01 1.0773720311332327e-01 1.0215107059984838e-01 
5.4310901803607181e-01 2.3460683330090040e-01 1.7437886497962030e-01 1.3912052276108217e-01 1.1894270214646199e-01 1.0755381805396401e-01 1.0203815947651657e-01 
5.4511292585170312e-01 2.3354739139635519e-01 1.7372996566234397e-01 1.3870179778832922e-01 1.1866470735754464e-01 1.0737081419759383e-01 1.0192550561363860e-01 
5.4711683366733443e-01 2.3249035320515585e-01 1.7308233480060087e-01 1.3828386048674701e-01 1.1838724987023724e-01 1.0718819062012176e-01 1.0181310863181728e-01 
5.4912074148296575e-01 2.3143571016930892e-01 1.7243596763199134e-01 1.3786670797669395e-01 1.1811032797657019e-01 1.0700594641104309e-01 1.0170096815949736e-01 
5.5112464929859706e-01 2.3038345376328595e-01 1.7179085942044833e-01 1.3745033740098198e-01 1.1783393998694286e-01 1.0682408067345826e-01 1.0158908383298304e-01 
5.5312855711422837e-01 2.2933357549382910e-01 1.7114700545612524e-01 1.3703474592482878e-01 1.1755808423012250e-01 1.0664259252409332e-01 1.0147745529645662e-01 
5.5513246492985968e-01 2.2828606689976061e-01 1.7050440105528822e-01 1.3661993073581430e-01 1.1728275905324516e-01 1.0646148109332304e-01 1.0136608220199791e-01 
5.5713637274549099e-01 2.2724091955179285e-01 1.6986304156020976e-01 1.3620588904384001e-01 1.1700796282182044e-01 1.0628074552519602e-01 1.0125496420960459e-01 
5.5914028056112230e-01 2.2619812505233899e-01 1.6922292233906625e-01 1.3579261808109147e-01 1.1673369391973872e-01 1.0610038497746205e-01 1.0114410098721358e-01 
5.6114418837675362e-01 2.2515767503532619e-01 1.6858403878583803e-01 1.3538011510200484e-01 1.1645995074928198e-01 1.0592039862160116e-01 1.0103349221072348e-01 
5.6314809619238493e-01 2.2411956116600917e-01 1.6794638632021203e-01 1.3496837738323611e-01 1.1618673173113739e-01 1.0574078564285569e-01 1.0092313756401794e-01 
5.6515200400801624e-01 2.2308377514078603e-01 1.6730996038748752e-01 1.3455740222363435e-01 1.1591403530441438e-01 1.0556154524026436e-01 1.0081303673898996e-01 
5.6715591182364755e-01 2.2205030868701442e-01 1.6667475645848523e-01 1.3414718694421826e-01 1.1564185992666498e-01 1.0538267662669806e-01 1.0070318943556711e-01 
5.6915981963927886e-01 2.2101915356283000e-01 1.6604077002945877e-01 1.3373772888815647e-01 1.1537020407390713e-01 1.0520417902889899e-01 1.0059359536173822e-01 
5.7116372745491018e-01 2.1999030155696608e-01 1.6540799662200983e-01 1.3332902542075134e-01 1.1509906624065183e-01 1.0502605168752134e-01 1.0048425423358043e-01 
5.7316763527054149e-01 2.1896374448857409e-01 1.6477643178300594e-01 1.3292107392942673e-01 1.1482844493993333e-01 1.0484829385717490e-01 1.0037516577528800e-01 
5.7517154308617280e-01 2.1793947420704629e-01 1.6414607108450158e-01 1.3251387182371907e-01 1.1455833870334305e-01 1.0467090480647062e-01 1.0026632971920162e-01 
5.7717545090180411e-01 2.1691748259183946e-01 1.6351691012366243e-01 1.3210741653527294e-01 1.1428874608106661e-01 1.0449388381806921e-01 1.0015774580583904e-01 
5.7917935871743542e-01 2.1589776155229987e-01 1.6288894452269315e-01 1.3170170551783975e-01 1.1401966564192520e-01 1.0431723018873178e-01 1.0004941378392682e-01 
5.8118326653306673e-01 2.1488030302749050e-01 1.6226216992876794e-01 1.3129673624728136e-01 1.1375109597341973e-01 1.0414094322937342e-01 9.9941333410433014e-02 
5.8318717434869805e-01 2.1386509898601846e-01 1.6163658201396511e-01 1.3089250622157661e-01 1.1348303568177948e-01 1.0396502226511908e-01 9.9833504450601351e-02 
5.8519108216432936e-01 2.1285214142586562e-01 1.6101217647520424e-01 1.3048901296083301e-01 1.1321548339201361e-01 1.0378946663536213e-01 9.9725926677985730e-02 
5.8719498997996067e-01 2.1184142237421869e-01 1.6038894903418785e-01 1.3008625400730206e-01 1.1294843774796762e-01 1.0361427569382604e-01 9.9618599874487124e-02 
5.8919889779559198e-01 2.1083293388730298e-01 1.5976689543734540e-01 1.2968422692539874e-01 1.1268189741238301e-01 1.0343944880862800e-01 9.9511523830390289e-02 
5.9120280561122329e-01 2.0982666805021602e-01 1.5914601145578228e-01 1.2928292930172580e-01 1.1241586106696082e-01 1.0326498536234609e-01 9.9404698344402673e-02 
5.9320671342685460e-01 2.0882261697676383e-01 1.5852629288523135e-01 1.2888235874510215e-01 1.1215032741242983e-01 1.0309088475208898e-01 9.9298123223694024e-02 
5.9521062124248592e-01 2.0782077280929820e-01 1.5790773554600848e-01 1.2848251288659596e-01 1.1188529516861860e-01 1.0291714638956814e-01 9.9191798283937330e-02 
5.9721452905811723e-01 2.0682112771855585e-01 1.5729033528297276e-01 1.2808338937956218e-01 1.1162076307453137e-01 1.0274376970117369e-01 9.9085723349351090e-02 
5.9921843687374854e-01 2.0582367390349962e-01 1.5667408796548915e-01 1.2768498589968491e-01 1.1135672988842893e-01 1.0257075412805287e-01 9.8979898252742476e-02 
6.0122234468937985e-01 2.0482840359116017e-01 1.5605898948739655e-01 1.2728730014502473e-01 1.1109319438791376e-01 1.0239809912619123e-01 9.8874322835552170e-02 
6.0322625250501116e-01 2.0383530903648112e-01 1.5544503576697882e-01 1.2689032983607051e-01 1.1083015537001897e-01 1.0222580416649754e-01 9.8768996947900603e-02 
6.0523016032064247e-01 2.0284438252216463e-01 1.5483222274694097e-01 1.2649407271579671e-01 1.1056761165130290e-01 1.0205386873489160e-01 9.8663920448634645e-02 
6.0723406813627379e-01 2.0185561635851923e-01 1.5422054639438881e-01 1.2609852654972578e-01 1.1030556206794745e-01 1.0188229233239483e-01 9.8559093205376688e-02 
6.0923797595190510e-01 2.0086900288330917e-01 1.5361000270081326e-01 1.2570368912599500e-01 1.1004400547586179e-01 1.0171107447522490e-01 9.8454515094574382e-02 
6.1124188376753641e-01 1.9988453446160676e-01 1.5300058768207911e-01 1.2530955825543036e-01 1.0978294075079091e-01 1.0154021469489317e-01 9.8350186001551987e-02 
6.1324579158316772e-01 1.9890220348564475e-01 1.5239229737841856e-01 1.2491613177162397e-01 1.0952236678842851e-01 1.0136971253830583e-01 9.8246105820563048e-02 
6.1524969939879903e-01 1.9792200237467264e-01 1.5178512785442891e-01 1.2452340753101869e-01 1.0926228250453626e-01 1.0119956756786799e-01 9.8142274454844441e-02 
6.1725360721443034e-01 1.9694392357481377e-01 1.5117907519907589e-01 1.2413138341299750e-01 1.0900268683506684e-01 1.0102977936159220e-01 9.8038691816671977e-02 
6.1925751503006166e-01 1.9596795955892432e-01 1.5057413552570059e-01 1.2374005731997943e-01 1.0874357873629310e-01 1.0086034751320955e-01 9.7935357827417469e-02 
6.2126142284569297e-01 1.9499410282645604e-01 1.4997030497203293e-01 1.2334942717752127e-01 1.0848495718494329e-01 1.0069127163228557e-01 9.7832272417606836e-02 
6.2326533066132428e-01 1.9402234590331846e-01 1.4936757970020920e-01 1.2295949093442496e-01 1.0822682117834020e-01 1.0052255134433860e-01 9.7729435526980574e-02 
6.2526923847695559e-01 1.9305268134174622e-01 1.4876595589679537e-01 1.2257024656285258e-01 1.0796916973454766e-01 1.0035418629096336e-01 9.7626847104554687e-02 
6.2727314629258690e-01 1.9208510172016649e-01 1.4816542977281544e-01 1.2218169205844649e-01 1.0771200189252196e-01 1.0018617612995739e-01 9.7524507108684239e-02 
6.2927705410821821e-01 1.9111959964306988e-01 1.4756599756378647e-01 1.2179382544045712e-01 1.0745531671226964e-01 1.0001852053545196e-01 9.7422415507127477e-02 
6.3128096192384953e-01 1.9015616774088345e-01 1.4696765552975735e-01 1.2140664475187710e-01 1.0719911327501136e-01 9.9851219198047167e-02 9.7320572277112480e-02 
6.3328486973948084e-01 1.8919479866984615e-01 1.4637039995535592e-01 1.2102014805958276e-01 1.0694339068335182e-01 9.9684271824950946e-02 9.7218977405404597e-02 
6.3528877755511215e-01 1.8823548511188679e-01 1.4577422714983979e-01 1.2063433345448231e-01 1.0668814806145691e-01 9.9517678140122245e-02 9.7117630888376189e-02 
6.3729268537074346e-01 1.8727821977450462e-01 1.4517913344715536e-01 1.2024919905167218e-01 1.0643338455523600e-01 9.9351437884419330e-02 9.7016532732077831e-02 
6.3929659318637477e-01 1.8632299539065314e-01 1.4458511520600181e-01 1.1986474299060061e-01 1.0617909933253308e-01 9.9185550815751408e-02 9.6915682952310941e-02 
6.4130050100200608e-01 1.8536980471862574e-01 1.4399216880990245e-01 1.1948096343523873e-01 1.0592529158332258e-01 9.9020016709235895e-02 9.6815081574702755e-02 
6.4330440881763740e-01 1.8441864054194518e-01 1.4340029066728294e-01 1.1909785857426027e-01 1.0567196051991433e-01 9.8854835357359519e-02 9.6714728634782393e-02 
6.4530831663326871e-01 1.8346949566925555e-01 1.4280947721155582e-01 1.1871542662122944e-01 1.0541910537716455e-01 9.8690006570144775e-02 9.6614624178059494e-02 
6.4731222444890002e-01 1.8252236293421747e-01 1.4221972490121290e-01 1.1833366581479682e-01 1.0516672541269485e-01 9.8525530175321036e-02 9.6514768260103745e-02 
6.4931613226453133e-01 1.8157723519540594e-01 1.4163103021992507e-01 1.1795257441890471e-01 1.0491481990711889e-01 9.8361406018500505e-02 9.6415160946627276e-02 
6.5132004008016264e-01 1.8063410533621299e-01 1.4104338967664898e-01 1.1757215072300112e-01 1.0466338816427702e-01 9.8197633963359510e-02 9.6315802313568261e-02 
6.5332394789579395e-01 1.7969296626475184e-01 1.4045679980574288e-01 1.1719239304226278e-01 1.0441242951147878e-01 9.8034213891825275e-02 9.6216692447176747e-02 
6.5532785571142527e-01 1.7875381091376566e-01 1.3987125716708951e-01 1.1681329971782861e-01 1.0416194329975427e-01 9.7871145704267318e-02 9.6117831444102367e-02 
6.5733176352705658e-01 1.7781663224054045e-01 1.3928675834622792e-01 1.1643486911704175e-01 1.0391192890411355e-01 9.7708429319694923e-02 9.6019219411484100e-02 
6.5933567134268789e-01 1.7688142322682035e-01 1.3870329995449387e-01 1.1605709963370289e-01 1.0366238572381520e-01 9.7546064675960123e-02 9.5920856467042112e-02 
6.6133957915831920e-01 1.7594817687872802e-01 1.3812087862916958e-01 1.1567998968833328e-01 1.0341331318264405e-01 9.7384051729966406e-02 9.5822742739171810e-02 
6.6334348697395051e-01 1.7501688622668907e-01 1.3753949103364169e-01 1.1530353772844912e-01 1.0316471072919763e-01 9.7222390457883265e-02 9.5724878367039481e-02 
6.6534739478958183e-01 1.7408754432535956e-01 1.3695913385757011e-01 1.1492774222884637e-01 1.0291657783718319e-01 9.7061080855366924e-02 9.5627263500680681e-02 
6.6735130260521314e-01 1.7316014425355972e-01 1.3637980381706560e-01 1.1455260169189752e-01 1.0266891400572362e-01 9.6900122937786881e-02 9.5529898301100910e-02 
6.6935521042084445e-01 1.7223467911421061e-01 1.3580149765487884e-01 1.1417811464786022e-01 1.0242171875967419e-01 9.6739516740459455e-02 9.5432782940377742e-02 
6.7135911823647576e-01 1.7131114203427694e-01 1.3522421214059857e-01 1.1380427965519750e-01 1.0217499164994950e-01 9.6579262318887332e-02 9.5335917601766226e-02 
6.7336302605210707e-01 1.7038952616471362e-01 1.3464794407086209e-01 1.1343109530091125e-01 1.0192873225386076e-01 9.6419359749005742e-02 9.5239302479805832e-02 
6.7536693386773838e-01 1.6946982468041821e-01 1.3407269026957616e-01 1.1305856020088835e-01 1.0168294017546559e-01 9.6259809127435939e-02 9.5142937780430384e-02 
6.7737084168336970e-01 1.6855203078018871e-01 1.3349844758815013e-01 1.1268667300026021e-01 1.0143761504592694e-01 9.6100610571745307e-02 9.5046823721079893e-02 
6.7937474949900101e-01 1.6763613768668653e-01 1.3292521290574091e-01 1.1231543237377638e-01 1.0119275652388596e-01 9.5941764220714598e-02 9.4950960530815393e-02 
6.8137865731463232e-01 1.6672213864640628e-01 1.3235298312951096e-01 1.1194483702619222e-01 1.0094836429584562e-01 9.5783270234612916e-02 9.4855348450436000e-02 
6.8338256513026363e-01 1.6581002692965002e-01 1.3178175519489876e-01 1.1157488569267129e-01 1.0070443807656723e-01 9.5625128795480310e-02 9.4759987732598278e-02 
6.8538647294589494e-01 1.6489979583050937e-01 1.3121152606590311e-01 1.1120557713920366e-01 1.0046097760948003e-01 9.5467340107417337e-02 9.4664878641939079e-02 
6.8739038076152625e-01 1.6399143866685359e-01 1.3064229273538175e-01 1.1083691016303913e-01 1.0021798266710341e-01 9.5309904396883804e-02 9.4570021455200062e-02 
6.8939428857715757e-01 1.6308494878032442e-01 1.3007405222536392e-01 1.1046888359313761e-01 9.9975453051483490e-02 9.5152821913004740e-02 9.4475416461355738e-02 
6.9139819639278888e-01 1.6218031953633885e-01 1.2950680158737840e-01 1.1010149629063572e-01 9.9733388594643285e-02 9.4996092927885273e-02 9.4381063961743852e-02 
6.9340210420842019e-01 1.6127754432409827e-01 1.2894053790279708e-01 1.0973474714933172e-01 9.9491789159047425e-02 9.4839717736934087e-02 9.4286964270198864e-02 
6.9540601202405150e-01 1.6037661655660670e-01 1.2837525828319518e-01 1.0936863509618754e-01 9.9250654638082400e-02 9.4683696659195599e-02 9.4193117713188099e-02 
6.9740991983968281e-01 1.5947752967069623e-01 1.2781095987072738e-01 1.0900315909185060e-01 9.9009984956551653e-02 9.4528030037691321e-02 9.4099524629951109e-02 
6.9941382765531412e-01 1.5858027712706216e-01 1.2724763983852266e-01 1.0863831813119448e-01 9.8769780071186725e-02 9.4372718239770892e-02 9.4006185372642048e-02 
7.0141773547094544e-01 1.5768485241030555e-01 1.2668529539109677e-01 1.0827411124387948e-01 9.8530039971175168e-02 9.4217761657472157e-02 9.3913100306474817e-02 
7.0342164328657675e-01 1.5679124902898728e-01 1.2612392376478343e-01 1.0791053749493491e-01 9.8290764678705261e-02 9.4063160707891766e-02 9.3820269809871890e-02 
7.0542555110220806e-01 1.5589946051568979e-01 1.2556352222818576e-01 1.0754759598536227e-01 9.8051954249528672e-02 9.3908915833565310e-02 9.3727694274615872e-02 
7.0742945891783937e-01 1.5500948042709056e-01 1.2500408808264779e-01 1.0718528585276080e-01 9.7813608773540367e-02 9.3755027502858690e-02 9.3635374106004698e-02 
7.0943336673347068e-01 1.5412130234404642e-01 1.2444561866274784e-01 1.0682360627197679e-01 9.7575728375378326e-02 9.3601496210369589e-02 9.3543309723010074e-02 
7.1143727454910199e-01 1.5323491987168783e-01 1.2388811133681278e-01 1.0646255645577665e-01 9.7338313215042202e-02 9.3448322477340112e-02 9.3451501558439204e-02 
7.1344118236473331e-01 1.5235032663952686e-01 1.2333156350745737e-01 1.0610213565554497e-01 9.7101363488531836e-02 9.3295506852081309e-02 9.3359950059100555e-02 
7.1544509018036462e-01 1.5146751630157554e-01 1.2277597261214560e-01 1.0574234316200867e-01 9.6864879428506676e-02 9.3143049910408698e-02 9.3268655685972299e-02 
7.1744899799599593e-01 1.5058648253647980e-01 1.2222133612377864e-01 1.0538317830598760e-01 9.6628861304966771e-02 9.2990952256090331e-02 9.3177618914375482e-02 
7.1945290581162724e-01 1.4970721904766437e-01 1.2166765155130775e-01 1.0502464045917437e-01 9.6393309425955684e-02 9.2839214521307181e-02 9.3086840234150078e-02 
7.2145681362725855e-01 1.4882971956349389e-01 1.2111491644037517e-01 1.0466672903494134e-01 9.6158224138286494e-02 9.2687837367126005e-02 9.2996320149835471e-02 
7.2346072144288986e-01 1.4795397783744885e-01 1.2056312837398285e-01 1.0430944348917938e-01 9.5923605828291403e-02 9.2536821483985968e-02 9.2906059180854386e-02 
7.2546462925852118e-01 1.4707998764831604e-01 1.2001228497319102e-01 1.0395278332116720e-01 9.5689454922595812e-02 9.2386167592197935e-02 9.2816057861701176e-02 
7.2746853707415249e-01 1.4620774280039758e-01 1.1946238389784739e-01 1.0359674807447333e-01 9.5455771888918350e-02 9.2235876442458467e-02 9.2726316742133996e-02 
7.2947244488978380e-01 1.4533723712373589e-01 1.1891342284734836e-01 1.0324133733789230e-01 9.5222557236896418e-02 9.2085948816377813e-02 9.2636836387371385e-02 
7.3147635270541511e-01 1.4446846447435743e-01 1.1836539956143458e-01 1.0288655074641555e-01 9.4989811518939760e-02 9.1936385527022615e-02 9.2547617378292660e-02 
7.3348026052104642e-01 1.4360141873453611e-01 1.1781831182102069e-01 1.0253238798223928e-01 9.4757535331111739e-02 9.1787187419474156e-02 9.2458660311643348e-02 
7.3548416833667773e-01 1.4273609381307659e-01 1.1727215744906179e-01 1.0217884877581047e-01 9.4525729314040158e-02 9.1638355371402039e-02 9.2369965800244563e-02 
7.3748807615230905e-01 1.4187248364561936e-01 1.1672693431145861e-01 1.0182593290691232e-01 9.4294394153858249e-02 9.1489890293654064e-02 9.2281534473207152e-02 
7.3949198396794036e-01 1.4101058219496709e-01 1.1618264031800253e-01 1.0147364020579121e-01 9.4063530583177249e-02 9.1341793130862894e-02 9.2193366976150479e-02 
7.4149589178357167e-01 1.4015038345143649e-01 1.1563927342336180e-01 1.0112197055432663e-01 9.3833139382091563e-02 9.1194064862069976e-02 9.2105463971426202e-02 
7.4349979959920298e-01 1.3929188143323351e-01 1.1509683162811249e-01 1.0077092388724568e-01 9.3603221379217574e-02 9.1046706501366814e-02 9.2017826138346540e-02 
7.4550370741483429e-01 1.3843507018685564e-01 1.1455531297981400e-01 1.0042050019338461e-01 9.3373777452767773e-02 9.0899719098555154e-02 9.1930454173418011e-02 
7.4750761523046561e-01 1.3757994378752120e-01 1.1401471557413326e-01 1.0007069951699885e-01 9.3144808531660933e-02 9.0753103739825328e-02 9.1843348790579940e-02 
7.4951152304609692e-01 1.3672649633962849e-01 1.1347503755601886e-01 9.9721521959123524e-02 9.2916315596670462e-02 9.0606861548454640e-02 9.1756510721448512e-02 
7.5151543086172823e-01 1.3587472197724526e-01 1.1293627712092698e-01 9.9372967678987414e-02 9.2688299681611602e-02 9.0460993685525529e-02 9.1669940715565862e-02 
7.5351933867735954e-01 1.3502461486463044e-01 1.1239843251610329e-01 9.9025036895481311e-02 9.2460761874569669e-02 9.0315501350664434e-02 9.1583639540655154e-02 
7.5552324649299085e-01 1.3417616919679048e-01 1.1186150204192137e-01 9.8677729888684826e-02 9.2233703319170052e-02 9.0170385782802343e-02 9.1497607982880758e-02 
7.5752715430862216e-01 1.3332937920007165e-01 1.1132548405328212e-01 9.8331047001452454e-02 9.2007125215892868e-02 9.0025648260956978e-02 9.1411846847114508e-02 
7.5953106212425348e-01 1.3248423913279023e-01 1.1079037696107626e-01 9.7984988641063114e-02 9.1781028823432476e-02 8.9881290105038189e-02 9.1326356957207894e-02 
7.6153496993988479e-01 1.3164074328590303e-01 1.1025617923371270e-01 9.7639555280934445e-02 9.1555415460104969e-02 8.9737312676676742e-02 9.1241139156270232e-02 
7.6353887775551610e-01 1.3079888598372133e-01 1.0972288939871760e-01 9.7294747462406392e-02 9.1330286505304614e-02 8.9593717380077334e-02 9.1156194306952876e-02 
7.6554278557114741e-01 1.2995866158466818e-01 1.0919050604440521e-01 9.6950565796595500e-02 9.1105643401012029e-02 8.9450505662897001e-02 9.1071523291740133e-02 
7.6754669338677872e-01 1.2912006448208441e-01 1.0865902782162629e-01 9.6607010966324763e-02 9.0881487653354978e-02 8.9307679017149130e-02 9.0987127013246294e-02 
7.6955060120241003e-01 1.2828308910508524e-01 1.0812845344559703e-01 9.6264083728130972e-02 9.0657820834225120e-02 8.9165238980134634e-02 9.0903006394519592e-02 
7.7155450901804135e-01 1.2744772991946882e-01 1.0759878169781215e-01 9.5921784914354324e-02 9.0434644582952556e-02 8.9023187135400805e-02 9.0819162379353044e-02 
7.7355841683367266e-01 1.2661398142868249e-01 1.0707001142804771e-01 9.5580115435313445e-02 9.0211960608040057e-02 8.8881525113728682e-02 9.0735595932601915e-02 
7.7556232464930397e-01 1.2578183817484787e-01 1.0654214155645732e-01 9.5239076281570217e-02 8.9989770688960330e-02 8.8740254594150192e-02 9.0652308040508695e-02 
7.7756623246493528e-01 1.2495129473984971e-01 1.0601517107576616e-01 9.4898668526287908e-02 8.9768076678017852e-02 8.8599377304996202e-02 9.0569299711035528e-02 
7.7957014028056659e-01 1.2412234574649153e-01 1.0548909905356985e-01 9.4558893327688243e-02 8.9546880502279172e-02 8.8458895024975795e-02 9.0486571974203581e-02 
7.8157404809619790e-01 1.2329498585972239e-01 1.0496392463474179e-01 9.4219751931610668e-02 8.9326184165573447e-02 8.8318809584288713e-02 9.0404125882441025e-02 
7.8357795591182922e-01 1.2246920978793893e-01 1.0443964704395506e-01 9.3881245674180366e-02 8.9105989750567230e-02 8.8179122865772008e-02 9.0321962510937950e-02 
7.8558186372746053e-01 1.2164501228436803e-01 1.0391626558832641e-01 9.3543375984588770e-02 8.8886299420915388e-02 8.8039836806081087e-02 9.0240082958010420e-02 
7.8758577154309184e-01 1.2082238814853351e-01 1.0339377966018737e-01 9.3206144387992976e-02 8.8667115423492718e-02 8.7900953396908094e-02 9.0158488345471743e-02 
7.8958967935872315e-01 1.2000133222781344e-01 1.0287218873998979e-01 9.2869552508539815e-02 8.8448440090709096e-02 8.7762474686237421e-02 9.0077179819013531e-02 
7.9159358717435446e-01 1.1918183941909435e-01 1.0235149239935395e-01 9.2533602072520205e-02 8.8230275842911543e-02 8.7624402779640176e-02 8.9996158548594399e-02 
7.9359749498998577e-01 1.1836390467052507e-01 1.0183169030426659e-01 9.2198294911661594e-02 8.8012625190877783e-02 8.7486739841609679e-02 8.9915425728838344e-02 
7.9560140280561709e-01 1.1754752298338127e-01 1.0131278221843684e-01 9.1863632966563510e-02 8.7795490738404369e-02 8.7349488096938099e-02 8.9834982579442155e-02 
7.9760531062124840e-01 1.1673268941404417e-01 1.0079476800681970e-01 9.1529618290285553e-02 8.7578875184994562e-02 8.7212649832137182e-02 8.9754830345592174e-02 
7.9960921843687971e-01 1.1591939907610205e-01 1.0027764763931665e-01 9.1196253052093959e-02 8.7362781328649733e-02 8.7076227396903474e-02 8.9674970298390888e-02 
8.0161312625251102e-01 1.1510764714258315e-01 9.9761421194662678e-02 9.0863539541376270e-02 8.7147212068768826e-02 8.6940223205630537e-02 8.9595403735293649e-02 
8.0361703406814233e-01 1.1429742884832682e-01 9.9246088864511334e-02 9.0531480171731751e-02 8.6932170409161957e-02 8.6804639738969402e-02 8.9516131980555108e-02 
8.0562094188377364e-01 1.1348873949250464e-01 9.8731650957728970e-02 9.0200077485247498e-02 8.6717659461181193e-02 8.6669479545439118e-02 8.9437156385686972e-02 
8.0762484969940496e-01 1.1268157444129880e-01 9.8218107904911173e-02 8.9869334156969710e-02 8.6503682446976926e-02 8.6534745243089281e-02 8.9358478329925467e-02 
8.0962875751503627e-01 1.1187592913074977e-01 9.7705460263133176e-02 8.9539252999580946e-02 8.6290242702881936e-02 8.6400439521217051e-02 8.9280099220711187e-02 
8.1163266533066758e-01 1.1107179906978565e-01 9.7193708720949859e-02 8.9209836968293890e-02 8.6077343682933100e-02 8.6266565142139401e-02 8.9202020494178996e-02 
8.1363657314629889e-01 1.1026917984344232e-01 9.6682854103659552e-02 8.8881089165973856e-02 8.5864988962533570e-02 8.6133124943024372e-02 8.9124243615660514e-02 
8.1564048096193020e-01 1.0946806711629228e-01 9.6172897378847849e-02 8.8553012848502075e-02 8.5653182242264897e-02 8.6000121837781857e-02 8.9046770080198331e-02 
8.1764438877756151e-01 1.0866845663609151e-01 9.5663839662228786e-02 8.8225611430393563e-02 8.5441927351854130e-02 8.5867558819017892e-02 8.8969601413072433e-02 
8.1964829659319283e-01 1.0787034423766440e-01 9.5155682223802093e-02 8.7898888490683849e-02 8.5231228254305097e-02 8.5735438960053562e-02 8.8892739170339394e-02 
8.2165220440882414e-01 1.0707372584703995e-01 9.4648426494345711e-02 8.7572847779098517e-02 8.5021089050200574e-02 8.5603765417011590e-02 8.8816184939384604e-02 
8.2365611222445545e-01 1.0627859748585948e-01 9.4142074072266116e-02 8.7247493222522732e-02 8.4811513982183839e-02 8.5472541430973631e-02 8.8739940339487719e-02 
8.2566002004008676e-01 1.0548495527607445e-01 9.3636626730827080e-02 8.6922828931788348e-02 8.4602507439629326e-02 8.5341770330210120e-02 8.8664007022402111e-02 
8.2766392785571807e-01 1.0469279544495495e-01 9.3132086425784188e-02 8.6598859208794621e-02 8.4394073963510535e-02 8.5211455532486616e-02 8.8588386672948202e-02 
8.2966783567134939e-01 1.0390211433043388e-01 9.2628455303449250e-02 8.6275588553984733e-02 8.4186218251475847e-02 8.5081600547448538e-02 8.8513081009621380e-02 
8.3167174348698070e-01 1.0311290838680837e-01 9.2125735709213605e-02 8.5953021674196925e-02 8.3978945163142416e-02 8.4952208979088922e-02 8.8438091785214890e-02 
8.3367565130261201e-01 1.0232517419082832e-01 9.1623930196562078e-02 8.5631163490913320e-02 8.3772259725619233e-02 8.4823284528300708e-02 8.8363420787458027e-02 
8.3567955911824332e-01 1.0153890844819960e-01 9.1123041536608176e-02 8.5310019148930605e-02 8.3566167139270967e-02 8.4694830995518736e-02 8.8289069839670234e-02 
8.3768346693387463e-01 1.0075410800053364e-01 9.0623072728188064e-02 8.4989594025476886e-02 8.3360672783735143e-02 8.4566852283454064e-02 8.8215040801431152e-02 
8.3968737474950594e-01 9.9970769832778500e-02 9.0124027008550503e-02 8.4669893739802396e-02 8.3155782224205679e-02 8.4439352399924658e-02 8.8141335569267662e-02 
8.4169128256513726e-01 9.9188891081168531e-02 8.9625907864684412e-02 8.4350924163274124e-02 8.2951501217996979e-02 8.4312335460786592e-02 8.8067956077357984e-02 
8.4369519038076857e-01 9.8408469041733421e-02 8.9128719045328361e-02 8.4032691430003956e-02 8.2747835721402554e-02 8.4185805692969712e-02 8.7994904298253379e-02 
8.4569909819639988e-01 9.7629501179410966e-02 8.8632464573710892e-02 8.3715201948045048e-02 8.2544791896865380e-02 8.4059767437622460e-02 8.7922182243618280e-02 
8.4770300601203119e-01 9.6851985137812860e-02 8.8137148761073023e-02 8.3398462411191518e-02 8.2342376120474806e-02 8.3934225153369985e-02 8.7849791964988766e-02 
8.4970691382766250e-01 9.6075918749695358e-02 8.7642776221030450e-02 8.3082479811421056e-02 8.2140594989809121e-02 8.3809183419691055e-02 8.7777735554550623e-02 
8.5171082164329381e-01 9.5301300048193663e-02 8.7149351884835899e-02 8.2767261452020499e-02 8.1939455332142141e-02 8.3684646940418023e-02 8.7706015145937191e-02 
8.5371472945892513e-01 9.4528127278883642e-02 8.6656881017608794e-02 8.2452814961440246e-02 8.1738964213033519e-02 8.3560620547365821e-02 8.7634632915047389e-02 
8.5571863727455644e-01 9.3756398912738584e-02 8.6165369235604430e-02 8.2139148307924723e-02 8.1539128945324432e-02 8.3437109204095014e-02 8.7563591080885045e-02 
8.5772254509018775e-01 9.2986113660060515e-02 8.5674822524600402e-02 8.1826269814970154e-02 8.1339957098561289e-02 8.3314118009815488e-02 8.7492891906419776e-02 
8.5972645290581906e-01 9.2217270485465491e-02 8.5185247259487423e-02 8.1514188177666910e-02 8.1141456508871293e-02 8.3191652203436120e-02 8.7422537699470088e-02 
8.6173036072145037e-01 9.1449868624018438e-02 8.4696650225155476e-02 8.1202912479983805e-02 8.0943635289315974e-02 8.3069717167767537e-02 8.7352530813609677e-02 
8.6373426853708168e-01 9.0683907598616220e-02 8.4209038638778821e-02 8.0892452213061489e-02 8.0746501840749579e-02 8.2948318433883991e-02 8.7282873649096898e-02 
8.6573817635271300e-01 8.9919387238731829e-02 8.3722420173608356e-02 8.0582817294583664e-02 8.0550064863212076e-02 8.2827461685652831e-02 8.7213568653829440e-02 
8.6774208416834431e-01 8.9156307700640994e-02 8.3236802984394662e-02 8.0274018089301222e-02 8.0354333367887817e-02 8.2707152764437533e-02 8.7144618324323117e-02 
8.6974599198397562e-01 8.8394669489268107e-02 8.2752195734571682e-02 7.9966065430792210e-02 8.0159316689662863e-02 8.2587397673983279e-02 8.7076025206717547e-02 
8.7174989979960693e-01 8.7634473481800257e-02 8.2268607625347184e-02 7.9658970644545135e-02 7.9965024500316992e-02 8.2468202585492867e-02 8.7007791897807704e-02 
8.7375380761523824e-01 8.6875720953235536e-02 8.1786048426857536e-02 7.9352745572461650e-02 7.9771466822388476e-02 8.2349573842902285e-02 8.6939921046103597e-02 
8.7575771543086955e-01 8.6118413604050217e-02 8.1304528511561877e-02 7.9047402598882877e-02 7.9578654043751626e-02 8.2231517968364309e-02 8.6872415352917912e-02 
8.7776162324650087e-01 8.5362553590186727e-02 8.0824058890065206e-02 7.8742954678251639e-02 7.9386596932951914e-02 8.2114041667950832e-02 8.6805277573483164e-02 
8.7976553106213218e-01 8.4608143555590973e-02 8.0344651249581539e-02 7.8439415364533402e-02 7.9195306655344258e-02 8.1997151837583424e-02 8.6738510518098902e-02 
8.8176943887776349e-01 8.3855186667551040e-02 7.9866317995268013e-02 7.8136798842529442e-02 7.9004794790085084e-02 8.1880855569203465e-02 8.6672117053310196e-02 
8.8377334669339480e-01 8.3103686655116554e-02 7.9389072294684032e-02 7.7835119961226551e-02 7.8815073348031728e-02 8.1765160157192818e-02 8.6606100103118033e-02 
8.8577725450902611e-01 8.2353647850915465e-02 7.8912928125657714e-02 7.7534394269341958e-02 7.8626154790606723e-02 8.1650073105057661e-02 8.6540462650222985e-02 
8.8778116232465742e-01 8.1605075236716493e-02 7.8437900327870305e-02 7.7234638053235688e-02 7.8438052049688609e-02 8.1535602132387405e-02 8.6475207737303092e-02 
8.8978507014028874e-01 8.0857974493132048e-02 7.7964004658500979e-02 7.6935868377377578e-02 7.8250778548596481e-02 8.1421755182103012e-02 8.6410338468326992e-02 
8.9178897795592005e-01 8.0112352053900798e-02 7.7491257852315115e-02 7.6638103127575893e-02 7.8064348224238550e-02 8.1308540428008044e-02 8.6345858009903562e-02 
8.9379288577155136e-01 7.9368215165246947e-02 7.7019677686617646e-02 7.6341361057190943e-02 7.7878775550502585e-02 8.1195966282658294e-02 8.6281769592669200e-02 
8.9579679358718267e-01 7.8625571950871762e-02 7.6549283051541614e-02 7.6045661836581124e-02 7.7694075562970671e-02 8.1084041405565035e-02 8.6218076512713696e-02 
8.9780070140281398e-01 7.7884431483207991e-02 7.6080094026194811e-02 7.5751026106050279e-02 7.7510263885047490e-02 8.0972774711749296e-02 8.6154782133046656e-02 
8.9980460921844529e-01 7.7144803861645558e-02 7.5612131961248080e-02 7.5457475532593174e-02 7.7327356755598264e-02 8.0862175380664453e-02 8.6091889885104952e-02 
9.0180851703407661e-01 7.6406700298534802e-02 7.5145419568615576e-02 7.5165032870764384e-02 7.7145371058200532e-02 8.0752252865506233e-02 8.6029403270303603e-02 
9.0381242484970792e-01 7.5670133213877541e-02 7.4679981018954095e-02 7.4873722028029083e-02 7.6964324352121180e-02 8.0643016902929951e-02 8.5967325861630001e-02 
9.0581633266533923e-01 7.4935116339744756e-02 7.4215842047799338e-02 7.4583568134989120e-02 7.6784234905141122e-02 8.0534477523195813e-02 8.5905661305284681e-02 
9.0782024048097054e-01 7.4201664835600561e-02 7.3753030071250600e-02 7.4294597620920916e-02 7.6605121728357192e-02 8.0426645060765120e-02 8.5844413322368973e-02 
9.0982414829660185e-01 7.3469795415883513e-02 7.3291574312235444e-02 7.4006838295103725e-02 7.6427004613104851e-02 8.0319530165370495e-02 8.5783585710621613e-02 
9.1182805611223317e-01 7.2739526491387152e-02 7.2831505938510288e-02 7.3720319434471063e-02 7.6249904170153815e-02 8.0213143813585755e-02 8.5723182346205740e-02 
9.1383196392786448e-01 7.2010878326212405e-02 7.2372858213706079e-02 7.3435071878172317e-02 7.6073841871345110e-02 8.0107497320921719e-02 8.5663207185548429e-02 
9.1583587174349579e-01 7.1283873212329082e-02 7.1915666662895172e-02 7.3151128129696943e-02 7.5898840093849021e-02 8.0002602354476690e-02 8.5603664267233870e-02 
9.1783977955912710e-01 7.0558535664095118e-02 7.1459969254354661e-02 7.2868522467284494e-02 7.5724922167241596e-02 7.9898470946171377e-02 8.5544557713952765e-02 
9.1984368737475841e-01 6.9834892635450493e-02 7.1005806599426569e-02 7.2587291063427456e-02 7.5552112423613024e-02 7.9795115506600095e-02 8.5485891734509420e-02 
9.2184759519038972e-01 6.9112973762936708e-02 7.0553222172637986e-02 7.2307472114360546e-02 7.5380436250940916e-02 7.9692548839533250e-02 8.5427670625888741e-02 
9.2385150300602104e-01 6.8392811638204390e-02 7.0102262554547351e-02 7.2029105980539021e-02 7.5209920149981527e-02 7.9590784157105562e-02 8.5369898775385020e-02 
9.2585541082165235e-01 6.7674442114283764e-02 6.9652977700136370e-02 7.1752235339221412e-02 7.5040591794955744e-02 7.9489835095730516e-02 8.5312580662795248e-02 
9.2785931863728366e-01 6.6957904650620181e-02 6.9205421235977685e-02 7.1476905350407294e-02 7.4872480098331487e-02 7.9389715732780627e-02 8.5255720862678172e-02 
9.2986322645291497e-01 6.6243242702747049e-02 6.8759650789889812e-02 7.1203163837531627e-02 7.4705615280031473e-02 7.9290440604077639e-02 8.5199324046682734e-02 
9.3186713426854628e-01 6.5530504163518161e-02 6.8315728357351946e-02 7.0931061484487662e-02 7.4540028941427763e-02 7.9192024722239851e-02 8.5143394985947404e-02 
9.3387104208417759e-01 6.4819741864085040e-02 6.7873720709615420e-02 7.0660652050749242e-02 7.4375754144517206e-02 7.9094483595935391e-02 8.5087938553573397e-02 
9.3587494989980891e-01 6.4111014144334746e-02 6.7433699849226980e-02 7.0391992606586407e-02 7.4212825496710155e-02 7.8997833250094976e-02 8.5032959727174215e-02 
9.3787885771544022e-01 6.3404385504371122e-02 6.6995743519602538e-02 7.0125143790625025e-02 7.4051279241707749e-02 7.8902090247140871e-02 8.4978463591504461e-02 
9.3988276553107153e-01 6.2699927350902643e-02 6.6559935776385734e-02 6.9860170092299459e-02 7.3891153356988426e-02 7.8807271709292540e-02 8.4924455341170949e-02 
9.4188667334670284e-01 6.1997718855202347e-02 6.6126367629630659e-02 6.9597140162083918e-02 7.3732487658477314e-02 7.8713395342013298e-02 8.4870940283428453e-02 
9.4389058116233415e-01 6.1297847942769608e-02 6.5695137767406750e-02 6.9336127152784574e-02 7.3575323913029816e-02 7.8620479458667861e-02 8.4817923841064527e-02 
9.4589448897796546e-01 6.0600412439123862e-02 6.5266353373297573e-02 6.9077209095625147e-02 7.3419705959425166e-02 7.8528543006464363e-02 8.4765411555374870e-02 
9.4789839679359678e-01 5.9905521401534441e-02 6.4840131052518638e-02 6.8820469315388377e-02 7.3265679838638340e-02 7.8437605593760520e-02 8.4713409089234498e-02 
9.4990230460922809e-01 5.9213296673242745e-02 6.4416597884108473e-02 6.8565996889484865e-02 7.3113293934238877e-02 7.8347687518818446e-02 8.4661922230267125e-02 
9.5190621242485940e-01 5.8523874705271511e-02 6.3995892619962524e-02 6.8313887156536982e-02 7.2962599123856123e-02 7.8258809800099999e-02 8.4610956894116740e-02 
9.5391012024049071e-01 5.7837408701790133e-02 6.3578167055525742e-02 6.8064242280896470e-02 7.2813648942752426e-02 7.8170994208200048e-02 8.4560519127825307e-02 
9.5591402805612202e-01 5.7154071158942714e-02 6.3163587601920937e-02 6.7817171880493826e-02 7.2666499760657977e-02 7.8084263299522269e-02 8.4510615113320794e-02 
9.5791793587175333e-01 5.6474056885061519e-02 6.2752337095407951e-02 6.7572793726564495e-02 7.2521210973152728e-02 7.7998640451811388e-02 8.4461251171019658e-02 
9.5992184368738465e-01 5.5797586613636589e-02 6.2344616887645622e-02 6.7331234525151953e-02 7.2377845209022018e-02 7.7914149901661817e-02 8.4412433763547831e-02 
9.6192575150301596e-01 5.5124911351226720e-02 6.1940649269667795e-02 6.7092630791889860e-02 7.2236468555178762e-02 7.7830816784134102e-02 8.4364169499585570e-02 
9.6392965931864727e-01 5.4456317643325085e-02 6.1540680294314344e-02 6.6857129833465381e-02 7.2097150800928517e-02 7.7748667174619021e-02 8.4316465137840302e-02 
9.6593356713427858e-01 5.3792133995842289e-02 6.1144983076767703e-02 6.6624890851431806e-02 7.1959965703564097e-02 7.7667728133101008e-02 8.4269327591152854e-02 
9.6793747494990989e-01 5.3132738763772905e-02 6.0753861671762874e-02 6.6396086186741504e-02 7.1824991277514474e-02 7.7588027750983501e-02 8.4222763930742323e-02 
9.6994138276554120e-01 5.2478569919673215e-02 6.0367655650201781e-02 6.6170902726617853e-02 7.1692310109539428e-02 7.7509595200652467e-02 8.4176781390594813e-02 
9.7194529058117252e-01 5.1830137254452707e-02 5.9986745528987646e-02 6.5949543499291316e-02 7.1562009702781038e-02 7.7432460787967936e-02 8.4131387372002445e-02 
9.7394919839680383e-01 5.1188037759102675e-02 5.9611559248188221e-02 6.5732229486849827e-02 7.1434182852816469e-02 7.7356656007888269e-02 8.4086589448257712e-02 
9.7595310621243514e-01 5.0552975214854780e-02 5.9242579942288195e-02 6.5519201692190790e-02 7.1308928059277951e-02 7.7282213603449681e-02 8.4042395369510414e-02 
9.7795701402806645e-01 4.9925785421896053e-02 5.8880355321679172e-02 6.5310723503056098e-02 7.1186349977055169e-02 7.7209167628340458e-02 8.3998813067793054e-02 
9.7996092184369776e-01 4.9307469087830756e-02 5.8525509072818796e-02 6.5107083404702087e-02 7.1066559911630398e-02 7.7137553513329862e-02 8.3955850662222234e-02 
9.8196482965932907e-01 4.8699235280696182e-02 5.8178754809412994e-02 6.4908598103305210e-02 7.0949676363705916e-02 7.7067408136833715e-02 8.3913516464382706e-02 
9.8396873747496039e-01 4.8102559698981029e-02 5.7840913275129982e-02 6.4715616135255144e-02 7.0835825628987575e-02 7.6998769899921854e-02 8.3871818983902072e-02 
9.8597264529059170e-01 4.7519264112325023e-02 5.7512933729065574e-02 6.4528522053718659e-02 7.0725142459803811e-02 7.6931678806099218e-02 8.3830766934223602e-02 
9.8797655310622301e-01 4.6951626684037656e-02 5.7195920765534751e-02 6.4347741304157657e-02 7.0617770796182824e-02 7.6866176546221451e-02 8.3790369238586584e-02 
9.8998046092185432e-01 4.6402538400079935e-02 5.6891168270351830e-02 6.4173745926022527e-02 7.0513864575109664e-02 7.6802306588936192e-02 8.3750635036220933e-02 
9.9198436873748563e-01 4.5875730165824760e-02 5.6600202858394885e-02 6.4007061250159800e-02 7.0413588627965373e-02 7.6740114277077623e-02 8.3711573688767776e-02 
9.9398827655311695e-01 4.5376111502760823e-02 5.6324840067712725e-02 6.3848273802651290e-02 7.0317119677643647e-02 7.6679646930478476e-02 8.3673194786933205e-02 
9.9599218436874826e-01 4.4910291645765391e-02 5.6067257954908412e-02 6.3698040678607834e-02 7.0224647448594857e-02 7.6620953955706825e-02 8.3635508157386920e-02 
9.9799609218437957e-01 4.4487410893863578e-02 5.5830094788591661e-02 6.3557100717669721e-02 7.0136375905106504e-02 7.6564086963281125e-02 8.3598523869915495e-02 
1.0000000000000109e+00 4.4120525039946255e-02 5.5616580673546225e-02 6.3426287901785131e-02 7.0052524635555669e-02 7.6509099892968002e-02 8.3562252244841762e-02 
