# dimensionless total [l(l+1)/2pi] C_l's
# for l=2 to 3000, i.e. number of multipoles equal to 2999
#
# -> if you prefer output in CAMB/HealPix/LensPix units/order, set 'format' to 'camb' in input file
# -> if you don't want to see such a header, set 'headers' to 'no' in input file
# -> for CMB lensing (phi), these are C_l^phi-phi for the lensing potential.
#    Remember the conversion factors:
#    C_l^dd (deflection) = l(l+1) C_l^phi-phi
#    C_l^gg (shear/convergence) = 1/4 (l(l+1))^2 C_l^phi-phi
#
# 1:l     2:TT                     3:EE                     4:TE                     5:BB                     6:phiphi                 7:TPhi                   8:Ephi               
    2       1.493334587518e-10       7.333592815881e-15       4.826475615039e-13       0.000000000000e+00       8.673853354567e-09       4.840913623439e-10      -2.520629187427e-12 
    3       1.407753343040e-10       1.242281218522e-14       6.083338321272e-13       0.000000000000e+00       5.384379150508e-09       3.449884703600e-10      -2.216181183704e-12 
    4       1.323442222278e-10       1.449717514458e-14       6.294159810349e-13       0.000000000000e+00       3.747045357062e-09       2.623427218112e-10      -1.767364940364e-12 
    5       1.256673780740e-10       1.339649453402e-14       5.893672247960e-13       0.000000000000e+00       2.794940253012e-09       2.080080275111e-10      -1.311166950003e-12 
    6       1.207479378140e-10       1.032597129347e-14       5.184022811447e-13       0.000000000000e+00       2.180027975367e-09       1.697752691510e-10      -8.950929341630e-13 
    7       1.173121950896e-10       6.835001288669e-15       4.370554464262e-13       0.000000000000e+00       1.756409862057e-09       1.416289143817e-10      -5.436060006786e-13 
    8       1.150066663421e-10       4.034077605457e-15       3.577878811212e-13       0.000000000000e+00       1.450774569692e-09       1.201583936650e-10      -2.675385892094e-13 
    9       1.135991593577e-10       2.331549603041e-15       2.879526846760e-13       0.000000000000e+00       1.221584982379e-09       1.032903936997e-10      -6.847344422121e-14 
   10       1.128825277758e-10       1.571401621558e-15       2.315977125022e-13       0.000000000000e+00       1.044130814466e-09       8.978617047655e-11       5.901028363583e-14 
   11       1.127048430488e-10       1.348358682152e-15       1.904121003171e-13       0.000000000000e+00       8.790718983364e-10       7.912126034355e-11       1.245798449372e-13 
   12       1.129885450307e-10       1.290959145659e-15       1.640436856292e-13       0.000000000000e+00       7.678610316811e-10       7.002571688149e-11       1.430930012251e-13 
   13       1.135801854208e-10       1.201976252622e-15       1.506533516031e-13       0.000000000000e+00       6.766028186739e-10       6.253425548065e-11       1.282453775983e-13 
   14       1.143884528346e-10       1.054595853267e-15       1.476111287413e-13       0.000000000000e+00       6.006968143759e-10       5.604256788120e-11       9.306022960869e-14 
   15       1.154252941413e-10       9.094963034552e-16       1.518892944907e-13       0.000000000000e+00       5.368249571516e-10       5.061427261763e-11       4.974257167967e-14 
   16       1.166733279100e-10       8.280657989634e-16       1.604568360892e-13       0.000000000000e+00       4.825354552783e-10       4.603854858995e-11       7.406126786850e-15 
   17       1.180056150636e-10       8.272062758719e-16       1.708561909651e-13       0.000000000000e+00       4.359771351337e-10       4.210272646091e-11      -2.762745975403e-14 
   18       1.194628582704e-10       8.790793847061e-16       1.812051642609e-13       0.000000000000e+00       3.955763683153e-10       3.857635565387e-11      -5.188173892952e-14 
   19       1.210529406473e-10       9.511882467889e-16       1.905716712998e-13       0.000000000000e+00       3.606903863960e-10       3.544271658520e-11      -6.448821946854e-14 
   20       1.226983476868e-10       1.010448133630e-15       1.982832392681e-13       0.000000000000e+00       3.299710912387e-10       3.268368955933e-11      -6.627502011117e-14 
   21       1.244144712253e-10       1.060104350696e-15       2.044054097562e-13       0.000000000000e+00       3.029343254964e-10       3.025948490240e-11      -5.941503451822e-14 
   22       1.262117793727e-10       1.118513304427e-15       2.093516646977e-13       0.000000000000e+00       2.789319421711e-10       2.808128324370e-11      -4.730437347874e-14 
   23       1.280748829008e-10       1.204918483022e-15       2.135896875932e-13       0.000000000000e+00       2.576327241426e-10       2.610815508389e-11      -3.290859590805e-14 
   24       1.299629772879e-10       1.337551374664e-15       2.176700721443e-13       0.000000000000e+00       2.385429800512e-10       2.429644812305e-11      -1.933267393507e-14 
   25       1.318952985157e-10       1.516350693970e-15       2.220533871102e-13       0.000000000000e+00       2.214376392486e-10       2.265631214650e-11      -8.412681555839e-15 
   26       1.338902727936e-10       1.733839247507e-15       2.271316333346e-13       0.000000000000e+00       2.060066986360e-10       2.119574155486e-11      -1.466534198491e-15 
   27       1.359316424992e-10       1.983675130958e-15       2.329182872183e-13       0.000000000000e+00       1.920645187875e-10       1.988955063307e-11       1.354110675063e-15 
   28       1.379849508069e-10       2.259703746384e-15       2.392359517168e-13       0.000000000000e+00       1.793700954135e-10       1.869411738092e-11       4.817186814542e-16 
   29       1.400587215886e-10       2.561543182865e-15       2.457757840106e-13       0.000000000000e+00       1.678582405650e-10       1.760108926822e-11      -3.282959534431e-15 
   30       1.421647645300e-10       2.890513257345e-15       2.520930196428e-13       0.000000000000e+00       1.574049712014e-10       1.660282332231e-11      -8.738601428253e-15 
   31       1.443044417257e-10       3.247328856909e-15       2.576674081703e-13       0.000000000000e+00       1.477966176820e-10       1.568308573426e-11      -1.447075878626e-14 
   32       1.464805281523e-10       3.629936912545e-15       2.621359987588e-13       0.000000000000e+00       1.389833955867e-10       1.483657710384e-11      -1.959848173683e-14 
   33       1.486870686882e-10       4.034770308101e-15       2.651373366257e-13       0.000000000000e+00       1.309028712319e-10       1.405496998020e-11      -2.328016622422e-14 
   34       1.509120050578e-10       4.458745305925e-15       2.663246991891e-13       0.000000000000e+00       1.234418175675e-10       1.332540291520e-11      -2.474557219497e-14 
   35       1.531622438665e-10       4.904510305609e-15       2.656361067525e-13       0.000000000000e+00       1.165619370973e-10       1.264588749721e-11      -2.411418469517e-14 
   36       1.554457144647e-10       5.377100319832e-15       2.631211510664e-13       0.000000000000e+00       1.102079086879e-10       1.201434776366e-11      -2.187454120710e-14 
   37       1.577648967631e-10       5.881726269782e-15       2.588694170989e-13       0.000000000000e+00       1.042968877999e-10       1.142600041180e-11      -1.861883228272e-14 
   38       1.601199512726e-10       6.420668418316e-15       2.529974820774e-13       0.000000000000e+00       9.881353151556e-11       1.087980595711e-11      -1.482877700962e-14 
   39       1.625053861361e-10       6.995401270930e-15       2.456628670954e-13       0.000000000000e+00       9.374038188477e-11       1.037357806665e-11      -1.103427384848e-14 
   40       1.649083223816e-10       7.607424800621e-15       2.370713236890e-13       0.000000000000e+00       8.902896308566e-11       9.901897582855e-12      -7.879868814909e-15 
   41       1.673143791152e-10       8.257986763553e-15       2.274180736648e-13       0.000000000000e+00       8.461665651246e-11       9.458033937475e-12      -5.962666021851e-15 
   42       1.697293164299e-10       8.947142295102e-15       2.166814224746e-13       0.000000000000e+00       8.049043602220e-11       9.041135558618e-12      -5.265576237305e-15 
   43       1.721632594834e-10       9.674387223496e-15       2.047669316153e-13       0.000000000000e+00       7.663932738127e-11       8.650908339233e-12      -5.551490183991e-15 
   44       1.746244782743e-10       1.043888950100e-14       1.915620682821e-13       0.000000000000e+00       7.303528436809e-11       8.285489296769e-12      -6.512059148616e-15 
   45       1.771186902921e-10       1.123979627462e-14       1.769409284699e-13       0.000000000000e+00       6.964319985552e-11       7.942190246741e-12      -7.810348336794e-15 
   46       1.796473044870e-10       1.207731079018e-14       1.607831526856e-13       0.000000000000e+00       6.645771032410e-11       7.620297921952e-12      -9.234774156324e-15 
   47       1.822082303008e-10       1.295190407664e-14       1.429584545596e-13       0.000000000000e+00       6.347508290370e-11       7.318891554975e-12      -1.058341304894e-14 
   48       1.847960144928e-10       1.386401543361e-14       1.233201610078e-13       0.000000000000e+00       6.068211481519e-11       7.035966193968e-12      -1.161896968264e-14 
   49       1.874015671735e-10       1.481405163182e-14       1.017042594533e-13       0.000000000000e+00       5.805542927850e-11       6.768353966666e-12      -1.206692586436e-14 
   50       1.900157327570e-10       1.580234645990e-14       7.797494939462e-14       0.000000000000e+00       5.556851140429e-11       6.512667772901e-12      -1.170317600366e-14 
   51       1.926417811219e-10       1.682902827445e-14       5.217808405851e-14       0.000000000000e+00       5.321670084731e-11       6.268617011361e-12      -1.064927137459e-14 
   52       1.952858334680e-10       1.789411511594e-14       2.442773181304e-14       0.000000000000e+00       5.099776606030e-11       6.036455769348e-12      -9.154116853322e-15 
   53       1.979532229160e-10       1.899754861796e-14      -5.135481592202e-15       0.000000000000e+00       4.890442544010e-11       5.816009161071e-12      -7.513792779228e-15 
   54       2.006484014796e-10       2.013919134159e-14      -3.634313736488e-14       0.000000000000e+00       4.692400747029e-11       5.606642705908e-12      -6.073914999321e-15 
   55       2.033746989177e-10       2.131888230373e-14      -6.903969762906e-14       0.000000000000e+00       4.504231425334e-11       5.407516550514e-12      -5.148386578737e-15 
   56       2.061337422626e-10       2.253662582187e-14      -1.032191905147e-13       0.000000000000e+00       4.325711462599e-11       5.218492242253e-12      -4.746610418645e-15 
   57       2.089257291432e-10       2.379244491350e-14      -1.389203162210e-13       0.000000000000e+00       4.156740773654e-11       5.039397581379e-12      -4.782644199691e-15 
   58       2.117494666207e-10       2.508632682293e-14      -1.761879009075e-13       0.000000000000e+00       3.996934107907e-11       4.869742414309e-12      -5.151993560248e-15 
   59       2.146022723889e-10       2.641822262305e-14      -2.150732938748e-13       0.000000000000e+00       3.845603440453e-11       4.708699109699e-12      -5.730714673347e-15 
   60       2.174798759748e-10       2.778804681707e-14      -2.556347647463e-13       0.000000000000e+00       3.701740363176e-11       4.555083034525e-12      -6.374516823624e-15 
   61       2.203780885371e-10       2.919560556707e-14      -2.979260974052e-13       0.000000000000e+00       3.564295956774e-11       4.407679137779e-12      -6.948856676979e-15 
   62       2.232984737543e-10       3.064036345532e-14      -3.419584815141e-13       0.000000000000e+00       3.433133652364e-11       4.266351531733e-12      -7.429144904282e-15 
   63       2.262437803001e-10       3.212162342507e-14      -3.877307330142e-13       0.000000000000e+00       3.308259975961e-11       4.131149456008e-12      -7.821541879491e-15 
   64       2.292162437299e-10       3.363859092387e-14      -4.352403647846e-13       0.000000000000e+00       3.189537932522e-11       4.001974774269e-12      -8.134034981831e-15 
   65       2.322175437976e-10       3.519037124070e-14      -4.844836093152e-13       0.000000000000e+00       3.076678835894e-11       3.878573432029e-12      -8.376524515712e-15 
   66       2.352487617726e-10       3.677596684307e-14      -5.354554413795e-13       0.000000000000e+00       2.969234138770e-11       3.760526914468e-12      -8.560909630636e-15 
   67       2.383103377565e-10       3.839427471417e-14      -5.881496007084e-13       0.000000000000e+00       2.866587262637e-11       3.647243704241e-12      -8.701174241110e-15 
   68       2.414024456522e-10       4.004420410921e-14      -6.425565707220e-13       0.000000000000e+00       2.768118180740e-11       3.538130371700e-12      -8.811356836091e-15 
   69       2.445263017072e-10       4.172506348422e-14      -6.986569884550e-13       0.000000000000e+00       2.673754154825e-11       3.433164196390e-12      -8.898790159146e-15 
   70       2.476830456562e-10       4.343624754570e-14      -7.564269339044e-13       0.000000000000e+00       2.583516427863e-11       3.332421761294e-12      -8.969639765953e-15 
   71       2.508733151007e-10       4.517712417785e-14      -8.158398267510e-13       0.000000000000e+00       2.497353660259e-11       3.235905709320e-12      -9.030930163145e-15 
   72       2.540972135080e-10       4.694703485940e-14      -8.768663967568e-13       0.000000000000e+00       2.415138178031e-11       3.143540795289e-12      -9.090576607752e-15 
   73       2.573542782091e-10       4.874529508054e-14      -9.394746541646e-13       0.000000000000e+00       2.336662221006e-11       3.055169937929e-12      -9.157416906639e-15 
   74       2.606434483976e-10       5.057119475980e-14      -1.003629860095e-12       0.000000000000e+00       2.261634191002e-11       2.970550271865e-12      -9.241243215947e-15 
   75       2.639630331281e-10       5.242399866099e-14      -1.069294496947e-12       0.000000000000e+00       2.189674900015e-11       2.889349199612e-12      -9.352833840530e-15 
   76       2.673113743079e-10       5.430279311991e-14      -1.136427722976e-12       0.000000000000e+00       2.120411651829e-11       2.811229009000e-12      -9.500684249860e-15 
   77       2.706890459900e-10       5.620599303517e-14      -1.204983686644e-12       0.000000000000e+00       2.053788586977e-11       2.736127266841e-12      -9.680441625038e-15 
   78       2.740969998548e-10       5.813174531450e-14      -1.274912849677e-12       0.000000000000e+00       1.989806377324e-11       2.664020621219e-12      -9.883592472359e-15 
   79       2.775358883329e-10       6.007807189887e-14      -1.346162436082e-12       0.000000000000e+00       1.928427695807e-11       2.594838674691e-12      -1.010055717986e-14 
   80       2.810060468544e-10       6.204286702787e-14      -1.418676391970e-12       0.000000000000e+00       1.869575470772e-11       2.528461852374e-12      -1.032065413152e-14 
   81       2.845074760993e-10       6.402389450504e-14      -1.492395345379e-12       0.000000000000e+00       1.813131140319e-11       2.464719270053e-12      -1.053206382147e-14 
   82       2.880398242472e-10       6.601878496323e-14      -1.567256566091e-12       0.000000000000e+00       1.758932906639e-11       2.403386602270e-12      -1.072179296817e-14 
   83       2.916023692269e-10       6.802503312998e-14      -1.643193925454e-12       0.000000000000e+00       1.706773990356e-11       2.344183950428e-12      -1.087563862863e-14 
   84       2.951943935928e-10       7.004024234098e-14      -1.720144622502e-12       0.000000000000e+00       1.656452861265e-11       2.286843789345e-12      -1.098111109459e-14 
   85       2.988164194392e-10       7.206291064475e-14      -1.798070731474e-12       0.000000000000e+00       1.607937322145e-11       2.231332419036e-12      -1.103683793020e-14 
   86       3.024691466163e-10       7.409177060956e-14      -1.876941169357e-12       0.000000000000e+00       1.561224552455e-11       2.177661486898e-12      -1.104466037823e-14 
   87       3.061530673191e-10       7.612555506203e-14      -1.956725319652e-12       0.000000000000e+00       1.516290691227e-11       2.125820233320e-12      -1.100682682780e-14 
   88       3.098684549366e-10       7.816299850793e-14      -2.037393105913e-12       0.000000000000e+00       1.473089964952e-11       2.075774537566e-12      -1.092600665593e-14 
   89       3.136153528998e-10       8.020283855297e-14      -2.118915065287e-12       0.000000000000e+00       1.431553815478e-11       2.027465963664e-12      -1.080530406922e-14 
   90       3.173935635307e-10       8.224381732357e-14      -2.201262422056e-12       0.000000000000e+00       1.391590027900e-11       1.980810806288e-12      -1.064827194543e-14 
   91       3.212026368905e-10       8.428468288769e-14      -2.284407161175e-12       0.000000000000e+00       1.353081858455e-11       1.935699136651e-12      -1.045892567516e-14 
   92       3.250418596291e-10       8.632419067555e-14      -2.368322101814e-12       0.000000000000e+00       1.315887162418e-11       1.891993848386e-12      -1.024175700346e-14 
   93       3.289105118244e-10       8.836099592365e-14      -2.452973590935e-12       0.000000000000e+00       1.279872105807e-11       1.849565193572e-12      -1.000140044204e-14 
   94       3.328087059136e-10       9.039330941637e-14      -2.538298167266e-12       0.000000000000e+00       1.245019994652e-11       1.808402404849e-12      -9.741545049964e-15 
   95       3.367366539068e-10       9.241919235379e-14      -2.624222507223e-12       0.000000000000e+00       1.211337277376e-11       1.768517175335e-12      -9.465883814959e-15 
   96       3.406944032654e-10       9.443666064112e-14      -2.710670464759e-12       0.000000000000e+00       1.178820027345e-11       1.729909203636e-12      -9.178455450552e-15 
   97       3.446818294290e-10       9.644368481349e-14      -2.797563043603e-12       0.000000000000e+00       1.147453545482e-11       1.692565726907e-12      -8.883653468607e-15 
   98       3.486986283434e-10       9.843818996090e-14      -2.884818369493e-12       0.000000000000e+00       1.117211962892e-11       1.656461053902e-12      -8.586235251847e-15 
   99       3.527443089872e-10       1.004180556531e-13      -2.972351662418e-12       0.000000000000e+00       1.088057843474e-11       1.621556098028e-12      -8.291331126372e-15 
  100       3.568181858995e-10       1.023811158643e-13      -3.060075208847e-12       0.000000000000e+00       1.059941786549e-11       1.587797910400e-12      -8.004453434183e-15 
  101       3.609193717071e-10       1.043251588984e-13      -3.147898333976e-12       0.000000000000e+00       1.032802029474e-11       1.555119212896e-12      -7.731505605702e-15 
  102       3.650467696521e-10       1.062479273135e-13      -3.235727373954e-12       0.000000000000e+00       1.006564050265e-11       1.523437931209e-12      -7.478791232296e-15 
  103       3.691990661185e-10       1.081471178471e-13      -3.323465648130e-12       0.000000000000e+00       9.811401702159e-12       1.492656727900e-12      -7.253023138797e-15 
  104       3.733750101364e-10       1.100204901857e-13      -3.411019735134e-12       0.000000000000e+00       9.564494224308e-12       1.462685347552e-12      -7.059772831044e-15 
  105       3.775743109873e-10       1.118662101695e-13      -3.498319326502e-12       0.000000000000e+00       9.324810700174e-12       1.433512095661e-12      -6.898560751153e-15 
  106       3.817968484853e-10       1.136825530258e-13      -3.585300015714e-12       0.000000000000e+00       9.092389673899e-12       1.405141189931e-12      -6.767116613522e-15 
  107       3.860423925613e-10       1.154677997711e-13      -3.671897274846e-12       0.000000000000e+00       8.867218880013e-12       1.377570596766e-12      -6.662871834954e-15 
