# Matter power spectrum P(k) at redshift z=4
# for k=1.04437e-05 to 1.08871 h/Mpc,
# number of wavenumbers equal to 603
#    1:k (h/Mpc)              2:P (Mpc/h)^3        
       1.044373164702e-05       3.368194724073e+00 
       2.330863079174e-05       7.290725132993e+00 
       3.621867756780e-05       1.114005491407e+01 
       4.920852089118e-05       1.495941423597e+01 
       6.231338151706e-05       1.877313715569e+01 
       7.556936531419e-05       2.259929884936e+01 
       8.901378653462e-05       2.645325177376e+01 
       1.026855053684e-04       3.034906978773e+01 
       1.166252841059e-04       3.430028507810e+01 
       1.308761662632e-04       3.832033169796e+01 
       1.454838830341e-04       4.242285099522e+01 
       1.604972913723e-04       4.662192786653e+01 
       1.759688478325e-04       5.093229082173e+01 
       1.919551219372e-04       5.536949365761e+01 
       2.085173521843e-04       5.995008864874e+01 
       2.257220467534e-04       6.469179755741e+01 
       2.436416293239e-04       6.961368260298e+01 
       2.623551279844e-04       7.473631850746e+01 
       2.819489017107e-04       8.008196523514e+01 
       3.025173939994e-04       8.567473758913e+01 
       3.241638965918e-04       9.154076745237e+01 
       3.470012974069e-04       9.770834989531e+01 
       3.711527754502e-04       1.042080624954e+02 
       3.967523913204e-04       1.110728427986e+02 
       4.239455050124e-04       1.183380047188e+02 
       4.528889335270e-04       1.260411678348e+02 
       4.837507406505e-04       1.342220729092e+02 
       5.167095326656e-04       1.429222477750e+02 
       5.519531207021e-04       1.521844908385e+02 
       5.896764086937e-04       1.620521372633e+02 
       6.300783827469e-04       1.725680843329e+02 
       6.733581210050e-04       1.837735623464e+02 
       7.197098192591e-04       1.957066691928e+02 
       7.693169385710e-04       2.084007127898e+02 
       8.223457207545e-04       2.218824500039e+02 
       8.789384681578e-04       2.361703510001e+02 
       9.392071166369e-04       2.512730442801e+02 
       1.003227708614e-03       2.671881196459e+02 
       1.071036363096e-03       2.839014445931e+02 
       1.142627223650e-03       3.013871067102e+02 
       1.217952652281e-03       3.196080217750e+02 
       1.296925664591e-03       3.385171663626e+02 
       1.379424326888e-03       3.580583732304e+02 
       1.465297617994e-03       3.781693128487e+02 
       1.554372138595e-03       3.987862064837e+02 
       1.646459041173e-03       4.198417270369e+02 
       1.741360637172e-03       4.412685121536e+02 
       1.838876280163e-03       4.630007234136e+02 
       1.938807285105e-03       4.849752459916e+02 
       2.040960792329e-03       5.071325271399e+02 
       2.145152601220e-03       5.294171024838e+02 
       2.251209076149e-03       5.517778756665e+02 
       2.358968268635e-03       5.741682227813e+02 
       2.468280412775e-03       5.965458961323e+02 
       2.579007944657e-03       6.188728816493e+02 
       2.691025179021e-03       6.411152498031e+02 
       2.804217754108e-03       6.632427769639e+02 
       2.918481932731e-03       6.852288011119e+02 
       3.033723826546e-03       7.070499008448e+02 
       3.149858592448e-03       7.286856477118e+02 
       3.266809635419e-03       7.501182740715e+02 
       3.384507840689e-03       7.713324151798e+02 
       3.502890849470e-03       7.923148738071e+02 
       3.621902386186e-03       8.130545152257e+02 
       3.741491640682e-03       8.335417117680e+02 
       3.861612705792e-03       8.537683922510e+02 
       3.982224068664e-03       8.737277233048e+02 
       4.103288152968e-03       8.934143100006e+02 
       4.224770908425e-03       9.128236577610e+02 
       4.346641443774e-03       9.319520387465e+02 
       4.468871699204e-03       9.507966133099e+02 
       4.591436154409e-03       9.693551052348e+02 
       4.714311568592e-03       9.876261657248e+02 
       4.837476749025e-03       1.005608936987e+03 
       4.960912345033e-03       1.023302703318e+03 
       5.084600664588e-03       1.040707840882e+03 
       5.208525510941e-03       1.057824367509e+03 
       5.332672037041e-03       1.074652924521e+03 
       5.457026615687e-03       1.091194847815e+03 
       5.581576723621e-03       1.107450953555e+03 
       5.706310837967e-03       1.123423294450e+03 
       5.831218343601e-03       1.139112766241e+03 
       5.956289450214e-03       1.154521178510e+03 
       6.081515117959e-03       1.169650707548e+03 
       6.206886990725e-03       1.184502967785e+03 
       6.332397336181e-03       1.199079635954e+03 
       6.458038991828e-03       1.213383399959e+03 
       6.583805316419e-03       1.227415792794e+03 
       6.709690146132e-03       1.241179171389e+03 
       6.835687755006e-03       1.254674456538e+03 
       6.961792819169e-03       1.267901553764e+03 
       7.088000384453e-03       1.280863241488e+03 
       7.214305837050e-03       1.293563043501e+03 
       7.340704876885e-03       1.306002819074e+03 
       7.467193493428e-03       1.318186131884e+03 
       7.593767943692e-03       1.330116141405e+03 
       7.720424732204e-03       1.341795809348e+03 
       7.847160592745e-03       1.353227658975e+03 
       7.973972471688e-03       1.364414820641e+03 
       8.100857512778e-03       1.375359915770e+03 
       8.227813043211e-03       1.386065480608e+03 
       8.354836560891e-03       1.396534571352e+03 
       8.481925722753e-03       1.406771078474e+03 
       8.609078334054e-03       1.416776963362e+03 
       8.736292338537e-03       1.426554572306e+03 
       8.863565809396e-03       1.436106486617e+03 
       8.990896940960e-03       1.445436100100e+03 
       9.118284041045e-03       1.454545779981e+03 
       9.245725523898e-03       1.463438192890e+03 
       9.373219903698e-03       1.472116497424e+03 
       9.500765788551e-03       1.480583302096e+03 
       9.628361874951e-03       1.488840891676e+03 
       9.756006942657e-03       1.496892875648e+03 
       9.883699849952e-03       1.504746194939e+03 
       1.001143952926e-02       1.512392261026e+03 
       1.013922498308e-02       1.519841094074e+03 
       1.026705528024e-02       1.527093267846e+03 
       1.039492955238e-02       1.534152515205e+03 
       1.052284699072e-02       1.541020971926e+03 
       1.065080684310e-02       1.547699875624e+03 
       1.077880841111e-02       1.554192446759e+03 
       1.090685104758e-02       1.560500672986e+03 
       1.103493415410e-02       1.566626032074e+03 
       1.116305717886e-02       1.572570112726e+03 
       1.129121961447e-02       1.578336110877e+03 
       1.141942099613e-02       1.583924297730e+03 
       1.154766089974e-02       1.589337437569e+03 
       1.167593894029e-02       1.594577433810e+03 
       1.180425477026e-02       1.599645136869e+03 
       1.193260807819e-02       1.604542698564e+03 
       1.206099858732e-02       1.609271427938e+03 
       1.218942605437e-02       1.613833451008e+03 
       1.231789026833e-02       1.618230371315e+03 
       1.244639104940e-02       1.622463455674e+03 
       1.257492824797e-02       1.626535763001e+03 
       1.270350174373e-02       1.630446856400e+03 
       1.283211144475e-02       1.634199950418e+03 
       1.296075728669e-02       1.637797720417e+03 
       1.308943923209e-02       1.641240467576e+03 
       1.321815726966e-02       1.644530844783e+03 
       1.334691141363e-02       1.647670999299e+03 
       1.347570170320e-02       1.650662375978e+03 
       1.360452820198e-02       1.653506671793e+03 
       1.373339099751e-02       1.656206834579e+03 
       1.386229020080e-02       1.658763986691e+03 
       1.399122594593e-02       1.661180402395e+03 
       1.412019838966e-02       1.663458158641e+03 
       1.424920771111e-02       1.665599375894e+03 
       1.437825411146e-02       1.667605447846e+03 
       1.450733781367e-02       1.669478174155e+03 
       1.463645906222e-02       1.671220267181e+03 
       1.476561812295e-02       1.672832815208e+03 
       1.489481528284e-02       1.674318528449e+03 
       1.502405084985e-02       1.675677923405e+03 
       1.515332515284e-02       1.676913786528e+03 
       1.528263854140e-02       1.678027630510e+03 
       1.541199138583e-02       1.679020795757e+03 
       1.554138407704e-02       1.679895749033e+03 
       1.567081702656e-02       1.680652441852e+03 
       1.580029066648e-02       1.681294530554e+03 
       1.592980544950e-02       1.681821146150e+03 
       1.605936184892e-02       1.682234059993e+03 
       1.618896035875e-02       1.682535340218e+03 
       1.631860149370e-02       1.682725997832e+03 
       1.644828578934e-02       1.682807549354e+03 
       1.657801380217e-02       1.682780544967e+03 
       1.670778610974e-02       1.682648110133e+03 
       1.683760331081e-02       1.682408995545e+03 
       1.696746602552e-02       1.682067746398e+03 
       1.709737489554e-02       1.681623143542e+03 
       1.722733058427e-02       1.681078088665e+03 
       1.735733377708e-02       1.680433726049e+03 
       1.748738518151e-02       1.679690176192e+03 
       1.761748552753e-02       1.678850527075e+03 
       1.774763556778e-02       1.677917231915e+03 
       1.787783607790e-02       1.676888706169e+03 
       1.800808785676e-02       1.675768890757e+03 
       1.813839172683e-02       1.674558257586e+03 
       1.826874853447e-02       1.673258949560e+03 
       1.839915915029e-02       1.671870784269e+03 
       1.852962446951e-02       1.670397598937e+03 
       1.866014541236e-02       1.668839953444e+03 
       1.879072292444e-02       1.667197954246e+03 
       1.892135797715e-02       1.665473401812e+03 
       1.905205156813e-02       1.663668114833e+03 
       1.918280472170e-02       1.661784870866e+03 
       1.931361848932e-02       1.659822486604e+03 
       1.944449395009e-02       1.657780729649e+03 
       1.957543221122e-02       1.655665349863e+03 
       1.970643440861e-02       1.653475479303e+03 
       1.983750170732e-02       1.651210005604e+03 
       1.996863530217e-02       1.648872029921e+03 
       2.009983641832e-02       1.646464116576e+03 
       2.023110631186e-02       1.643985352292e+03 
       2.036244627042e-02       1.641438904655e+03 
       2.049385761381e-02       1.638822210676e+03 
       2.062534169472e-02       1.636139320777e+03 
       2.075689989933e-02       1.633390326046e+03 
       2.088853364809e-02       1.630579951706e+03 
       2.102024439641e-02       1.627701474252e+03 
       2.115203363542e-02       1.624761289843e+03 
       2.128390289272e-02       1.621765108592e+03 
       2.141585373324e-02       1.618706324024e+03 
       2.154788776000e-02       1.615589494834e+03 
       2.168000661501e-02       1.612415244419e+03 
       2.181221198013e-02       1.609184655509e+03 
       2.194450557797e-02       1.605900179465e+03 
       2.207688917284e-02       1.602560979765e+03 
       2.220936457171e-02       1.599169136969e+03 
       2.234193362518e-02       1.595722554084e+03 
       2.247459822856e-02       1.592227664449e+03 
       2.260736032288e-02       1.588682556883e+03 
       2.274022189598e-02       1.585086594276e+03 
       2.287318498369e-02       1.581445308537e+03 
       2.300625167090e-02       1.577756157330e+03 
       2.313942409286e-02       1.574019341738e+03 
       2.327270443632e-02       1.570240429049e+03 
       2.340609494086e-02       1.566414500122e+03 
       2.353959790020e-02       1.562546334337e+03 
       2.367321566351e-02       1.558637882284e+03 
       2.380695063689e-02       1.554686674368e+03 
       2.394080528471e-02       1.550694256536e+03 
       2.407478213118e-02       1.546662504955e+03 
       2.420888376186e-02       1.542591963910e+03 
       2.434311282523e-02       1.538485994240e+03 
       2.447747203435e-02       1.534342000355e+03 
       2.461196416853e-02       1.530162568799e+03 
       2.474659207508e-02       1.525947977690e+03 
       2.488135867115e-02       1.521702354093e+03 
       2.501626694552e-02       1.517417977661e+03 
       2.515131996057e-02       1.513107188387e+03 
       2.528652085429e-02       1.508758866572e+03 
       2.542187284226e-02       1.504389558802e+03 
       2.555737921985e-02       1.499982012943e+03 
       2.569304336435e-02       1.495547555905e+03 
       2.582886873729e-02       1.491087665784e+03 
       2.596485888675e-02       1.486595779831e+03 
       2.610101744982e-02       1.482079197356e+03 
       2.623734815507e-02       1.477537251944e+03 
       2.637385482519e-02       1.472970442828e+03 
       2.651054137963e-02       1.468375858277e+03 
       2.664741183745e-02       1.463761974657e+03 
       2.678447032015e-02       1.459123829435e+03 
       2.692172105465e-02       1.454461916844e+03 
       2.705916837644e-02       1.449777199487e+03 
       2.719681673273e-02       1.445075195984e+03 
       2.733467068578e-02       1.440353814317e+03 
       2.747273491637e-02       1.435611870383e+03 
       2.761101422734e-02       1.430851674994e+03 
       2.774951354730e-02       1.426073600821e+03 
       2.788823793449e-02       1.421276231723e+03 
       2.802719258075e-02       1.416463797656e+03 
       2.816638281564e-02       1.411631934859e+03 
       2.830581411079e-02       1.406789939236e+03 
       2.844549208428e-02       1.401930740733e+03 
       2.858542250537e-02       1.397052455214e+03 
       2.872561129924e-02       1.392169257753e+03 
       2.886606455204e-02       1.387267538226e+03 
       2.900678851607e-02       1.382352245072e+03 
       2.914778961521e-02       1.377425378293e+03 
       2.928907445055e-02       1.372489329636e+03 
       2.943064980626e-02       1.367539562651e+03 
       2.957252265567e-02       1.362585916860e+03 
       2.971470016765e-02       1.357612225898e+03 
       2.985718971322e-02       1.352641020411e+03 
       2.999999887247e-02       1.347649620733e+03 
       3.014313544171e-02       1.342658707193e+03 
       3.028660744103e-02       1.337653763696e+03 
       3.043042312206e-02       1.332644978940e+03 
       3.057459097620e-02       1.327626583044e+03 
       3.071911974310e-02       1.322603066725e+03 
       3.086401841958e-02       1.317573740786e+03 
       3.100929626893e-02       1.312539600095e+03 
       3.115496283064e-02       1.307497882068e+03 
       3.130102793055e-02       1.302453338172e+03 
       3.144750169148e-02       1.297404051526e+03 
       3.159439454437e-02       1.292349419842e+03 
       3.174171723991e-02       1.287291692523e+03 
       3.188948086075e-02       1.282226982934e+03 
       3.203769683427e-02       1.277165546142e+03 
       3.218637694595e-02       1.272101564743e+03 
       3.233553335345e-02       1.267032229935e+03 
       3.248517860135e-02       1.261960162409e+03 
       3.263532563658e-02       1.256888829706e+03 
       3.278598782466e-02       1.251812605087e+03 
       3.293717896679e-02       1.246746904517e+03 
       3.308891331778e-02       1.241662623201e+03 
       3.324120560489e-02       1.236591864211e+03 
       3.339407104767e-02       1.231515027237e+03 
       3.354752537887e-02       1.226440315588e+03 
       3.370158486643e-02       1.221363921937e+03 
       3.385626633667e-02       1.216288537443e+03 
       3.401158719872e-02       1.211211443023e+03 
       3.416756547033e-02       1.206139390419e+03 
       3.432421980509e-02       1.201066664785e+03 
       3.448156952118e-02       1.195995874413e+03 
       3.463963463176e-02       1.190927229260e+03 
       3.479843587710e-02       1.185861364500e+03 
       3.495799475862e-02       1.180796451673e+03 
       3.511833357482e-02       1.175730604458e+03 
       3.527947545950e-02       1.170668400972e+03 
       3.544144442218e-02       1.165608709940e+03 
       3.560426539095e-02       1.160548761912e+03 
       3.576796425810e-02       1.155494227664e+03 
       3.593256792846e-02       1.150443818060e+03 
       3.609810437084e-02       1.145393428780e+03 
       3.626460267279e-02       1.140348101953e+03 
       3.643209309885e-02       1.135300072696e+03 
       3.660060715266e-02       1.130260715232e+03 
       3.677017764317e-02       1.125220763283e+03 
       3.694083875532e-02       1.120181923327e+03 
       3.711262612553e-02       1.115147731068e+03 
       3.728557692239e-02       1.110118534439e+03 
       3.745972993299e-02       1.105087474780e+03 
       3.763512565546e-02       1.100060762185e+03 
       3.781180639800e-02       1.095034782690e+03 
       3.798981638531e-02       1.090015873157e+03 
       3.816920187278e-02       1.084995149031e+03 
       3.835001126925e-02       1.079980497572e+03 
       3.853229526919e-02       1.074962565115e+03 
       3.871610699501e-02       1.069951727387e+03 
       3.890150215055e-02       1.064933796640e+03 
       3.908853918682e-02       1.059924040623e+03 
       3.927727948108e-02       1.054915796952e+03 
       3.946778753063e-02       1.049907971667e+03 
       3.966013116279e-02       1.044896958578e+03 
       3.985438176262e-02       1.039888634895e+03 
       4.005061452028e-02       1.034881875365e+03 
       4.024890869999e-02       1.029872376180e+03 
       4.044934793295e-02       1.024861138553e+03 
       4.065202053679e-02       1.019849744654e+03 
       4.085701986436e-02       1.014842858031e+03 
       4.106444468521e-02       1.009825516411e+03 
       4.127439960353e-02       1.004808883523e+03 
       4.148699551649e-02       9.997901874484e+02 
       4.170235011807e-02       9.947675807370e+02 
       4.192058845349e-02       9.897429414658e+02 
       4.214184353062e-02       9.847055626574e+02 
       4.236625699536e-02       9.796694044837e+02 
       4.259397987901e-02       9.746250209560e+02 
       4.282517342704e-02       9.695731321798e+02 
       4.306001001986e-02       9.645151818546e+02 
       4.329867419797e-02       9.594481145218e+02 
       4.354136380576e-02       9.543688244509e+02 
       4.378829127058e-02       9.492807965543e+02 
       4.403968503634e-02       9.441804431654e+02 
       4.429579117428e-02       9.390667253754e+02 
       4.455687519713e-02       9.339386412074e+02 
       4.482322410793e-02       9.287944278796e+02 
       4.509514871988e-02       9.236331272070e+02 
       4.537298629063e-02       9.184516659497e+02 
       4.565710352215e-02       9.132515474961e+02 
       4.594789998768e-02       9.080266624448e+02 
       4.624581205854e-02       9.027796136437e+02 
       4.655131741886e-02       8.975046564340e+02 
       4.686494027390e-02       8.922011931348e+02 
       4.718725738008e-02       8.868647511341e+02 
       4.751890505215e-02       8.814963398763e+02 
       4.786058733744e-02       8.760866086957e+02 
       4.821308558970e-02       8.706367590264e+02 
       4.857726972894e-02       8.651427207325e+02 
       4.895411154103e-02       8.595957982042e+02 
       4.934470045662e-02       8.539956370463e+02 
       4.975026235705e-02       8.483369569332e+02 
       5.017218209299e-02       8.426088534992e+02 
       5.061203057710e-02       8.368097040661e+02 
       5.107159753589e-02       8.309264964338e+02 
       5.155293129116e-02       8.249518391205e+02 
       5.205838730292e-02       8.188738855128e+02 
       5.259068766030e-02       8.126817984414e+02 
       5.315299427002e-02       8.063582423903e+02 
       5.374899917043e-02       7.998815105183e+02 
       5.438303617678e-02       7.932337654353e+02 
       5.506021887037e-02       7.863860434786e+02 
       5.578661059290e-02       7.792985061879e+02 
       5.656943217348e-02       7.719305460778e+02 
       5.741731170599e-02       7.642257022097e+02 
       5.834057603743e-02       7.561064811948e+02 
       5.935157238551e-02       7.474767603351e+02 
       6.046498480722e-02       7.382074507568e+02 
       6.169806485152e-02       7.281231812761e+02 
