# Matter power spectrum P(k) at redshift z=1
# for k=1.045e-05 to 8.48764 h/Mpc,
# number of wavenumbers equal to 612
#    1:k (h/Mpc)              2:P (Mpc/h)^3        
       1.045004358465e-05       1.935677049560e+01 
       2.333031646003e-05       4.191232582009e+01 
       3.625588232309e-05       6.404681838335e+01 
       4.926151484748e-05       8.600897841380e+01 
       6.238256282054e-05       1.079388078854e+02 
       7.565526530539e-05       1.299403031293e+02 
       8.911707687974e-05       1.521017979308e+02 
       1.028070072767e-04       1.745042713466e+02 
       1.167659797859e-04       1.972255847000e+02 
       1.310372128073e-04       2.203430330452e+02 
       1.456666289547e-04       2.439351020824e+02 
       1.607032960497e-04       2.680704453425e+02 
       1.761999041630e-04       2.928561088159e+02 
       1.922132824965e-04       3.183713182075e+02 
       2.088049592348e-04       3.447112432792e+02 
       2.260417664219e-04       3.719777609193e+02 
       2.439964902501e-04       4.002804316549e+02 
       2.627485646742e-04       4.297374851428e+02 
       2.823848027128e-04       4.604768006969e+02 
       3.030001548299e-04       4.926368745000e+02 
       3.246984770434e-04       5.263677364744e+02 
       3.475932824573e-04       5.618317745209e+02 
       3.718084384017e-04       5.992044022081e+02 
       3.974787570252e-04       6.386744817121e+02 
       4.247504100439e-04       6.804443926409e+02 
       4.537810789379e-04       7.247296053970e+02 
       4.847397315668e-04       7.717575976783e+02 
       5.178058974855e-04       8.217659221548e+02 
       5.531683013105e-04       8.749992450809e+02 
       5.910227121702e-04       9.317051533856e+02 
       6.315688849627e-04       9.921286245591e+02 
       6.750065137884e-04       1.056505085271e+03 
       7.215301959429e-04       1.125052168757e+03 
       7.713235180257e-04       1.197960443311e+03 
       8.245525173319e-04       1.275383615719e+03 
       8.813589235833e-04       1.357428888098e+03 
       9.418537183337e-04       1.444148365053e+03 
       1.006111625261e-03       1.535532412060e+03 
       1.074167130425e-03       1.631505791102e+03 
       1.146012510269e-03       1.731927146470e+03 
       1.221598126720e-03       1.836592029968e+03 
       1.300834972303e-03       1.945239300495e+03 
       1.383599172303e-03       2.057554464553e+03 
       1.469737934874e-03       2.173187334001e+03 
       1.559076324033e-03       2.291776675264e+03 
       1.651424225675e-03       2.412938818116e+03 
       1.746582964833e-03       2.536287688409e+03 
       1.844351177716e-03       2.661444055553e+03 
       1.944529704896e-03       2.788042902823e+03 
       2.046925420592e-03       2.915738737772e+03 
       2.151354028418e-03       3.044209220073e+03 
       2.257641930146e-03       3.173157076559e+03 
       2.365627314046e-03       3.302311304310e+03 
       2.475160621195e-03       3.431425915405e+03 
       2.586104540896e-03       3.560280628469e+03 
       2.698333668320e-03       3.688678459276e+03 
       2.811733934794e-03       3.816444655844e+03 
       2.926201898116e-03       3.943426601531e+03 
       3.041643959153e-03       4.069487967427e+03 
       3.157975553037e-03       4.194510657731e+03 
       3.275120348689e-03       4.318392765720e+03 
       3.393009479076e-03       4.441044369570e+03 
       3.511580816066e-03       4.562389172439e+03 
       3.630778297517e-03       4.682360567279e+03 
       3.750551309848e-03       4.800902224994e+03 
       3.870854126296e-03       4.917965922063e+03 
       3.991645399134e-03       5.033510974252e+03 
       4.112887702883e-03       5.147504299104e+03 
       4.234547124897e-03       5.259916427782e+03 
       4.356592899374e-03       5.370725287209e+03 
       4.478997080815e-03       5.479912416537e+03 
       4.601734253050e-03       5.587463934916e+03 
       4.724781270161e-03       5.693368937813e+03 
       4.848117025885e-03       5.797619951956e+03 
       4.971722248393e-03       5.900213607793e+03 
       5.095579317586e-03       6.001146755952e+03 
       5.219672102396e-03       6.100422033255e+03 
       5.343985815788e-03       6.198039077013e+03 
       5.468506885453e-03       6.294003551106e+03 
       5.593222838389e-03       6.388323244593e+03 
       5.718122197776e-03       6.481002087881e+03 
       5.843194390744e-03       6.572050920885e+03 
       5.968429665788e-03       6.661479080603e+03 
       6.093819018741e-03       6.749288173393e+03 
       6.219354126332e-03       6.835559108608e+03 
       6.345027286494e-03       6.920285877068e+03 
       6.470831364649e-03       7.003312173842e+03 
       6.596759745336e-03       7.084738620111e+03 
       6.722806288582e-03       7.164610664349e+03 
       6.848965290503e-03       7.242916973593e+03 
       6.975231447686e-03       7.319744108859e+03 
       7.101599824952e-03       7.395069781489e+03 
       7.228065826131e-03       7.468963186195e+03 
       7.354625167555e-03       7.541427577476e+03 
       7.481273853967e-03       7.612244552271e+03 
       7.608008156622e-03       7.681658391510e+03 
       7.734824593334e-03       7.749947781150e+03 
       7.861719910302e-03       7.816539165143e+03 
       7.988691065514e-03       7.881723132485e+03 
       8.115735213591e-03       7.945509328813e+03 
       8.242849691924e-03       8.007911466802e+03 
       8.370032007988e-03       8.068948974345e+03 
       8.497279827711e-03       8.128675866573e+03 
       8.624590964808e-03       8.187032812721e+03 
       8.751963370988e-03       8.244070474949e+03 
       8.879395126956e-03       8.299798497687e+03 
       9.006884434132e-03       8.354240244023e+03 
       9.134429607028e-03       8.407377566524e+03 
       9.262029066230e-03       8.459278265257e+03 
       9.389681331919e-03       8.509918047936e+03 
       9.517385017893e-03       8.559338164971e+03 
       9.645138826050e-03       8.607553050869e+03 
       9.772941541283e-03       8.654253089302e+03 
       9.900792026762e-03       8.700325799083e+03 
       1.002868921957e-02       8.744902800045e+03 
       1.015663212664e-02       8.788348253083e+03 
       1.028461982104e-02       8.830626914812e+03 
       1.041265143846e-02       8.871780597234e+03 
       1.054072617402e-02       8.911836496525e+03 
       1.066884327926e-02       8.950435015284e+03 
       1.079700205935e-02       8.988557780679e+03 
       1.092520187054e-02       9.025277305336e+03 
       1.105344211774e-02       9.060890896029e+03 
       1.118172225228e-02       9.095199517334e+03 
       1.131004176988e-02       9.128993129484e+03 
       1.143840020866e-02       9.161241520125e+03 
       1.156679714741e-02       9.192961473289e+03 
       1.169523220388e-02       9.223424316107e+03 
       1.182370503324e-02       9.252923462785e+03 
       1.195221532664e-02       9.281382770155e+03 
       1.208076280985e-02       9.308872007678e+03 
       1.220934724206e-02       9.335388603274e+03 
       1.233796841467e-02       9.360955213553e+03 
       1.246662615021e-02       9.385576416358e+03 
       1.259532030139e-02       9.409262051134e+03 
       1.272405075012e-02       9.431976855804e+03 
       1.285281740668e-02       9.453883033356e+03 
       1.298162020888e-02       9.474844759161e+03 
       1.311045912139e-02       9.494911147079e+03 
       1.323933413499e-02       9.514062075782e+03 
       1.336824526596e-02       9.532372391991e+03 
       1.349719255553e-02       9.549914686997e+03 
       1.362617606930e-02       9.566540825274e+03 
       1.375519589679e-02       9.582291893435e+03 
       1.388425215096e-02       9.597252076749e+03 
       1.401334496781e-02       9.611388517916e+03 
       1.414247450603e-02       9.624806127206e+03 
       1.427164094666e-02       9.637363472147e+03 
       1.440084449274e-02       9.649139508006e+03 
       1.453008536914e-02       9.660129199808e+03 
       1.465936382220e-02       9.670049889328e+03 
       1.478868011964e-02       9.679847681823e+03 
       1.491803455030e-02       9.688580976548e+03 
       1.504742742402e-02       9.696583295530e+03 
       1.517685907151e-02       9.703589391843e+03 
       1.530632984425e-02       9.710413274174e+03 
       1.543584011438e-02       9.716278064089e+03 
       1.556539027473e-02       9.721434295381e+03 
       1.569498073867e-02       9.725911538790e+03 
       1.582461194022e-02       9.729710973918e+03 
       1.595428433395e-02       9.732840259854e+03 
       1.608399839510e-02       9.735295854932e+03 
       1.621375461959e-02       9.737115338613e+03 
       1.634355352408e-02       9.738278298314e+03 
       1.647339564609e-02       9.738767950352e+03 
       1.660328154410e-02       9.738683711259e+03 
       1.673321179765e-02       9.737737388043e+03 
       1.686318700753e-02       9.736657550043e+03 
       1.699320779588e-02       9.734702855622e+03 
       1.712327480645e-02       9.732052514791e+03 
       1.725338870472e-02       9.728950835314e+03 
       1.738355017815e-02       9.725513816142e+03 
       1.751375993644e-02       9.721316791086e+03 
       1.764401871169e-02       9.716524030278e+03 
       1.777432725877e-02       9.710961759031e+03 
       1.790468635550e-02       9.705035934841e+03 
       1.803509680303e-02       9.698897438273e+03 
       1.816555942610e-02       9.691697440565e+03 
       1.829607507341e-02       9.684250757682e+03 
       1.842664461792e-02       9.676495808525e+03 
       1.855726895726e-02       9.668083998538e+03 
       1.868794901408e-02       9.659168198394e+03 
       1.881868573646e-02       9.649729951216e+03 
       1.894948009832e-02       9.639806608247e+03 
       1.908033309987e-02       9.629157583584e+03 
       1.921124576803e-02       9.618502099822e+03 
       1.934221915691e-02       9.607200639549e+03 
       1.947325434832e-02       9.595480141682e+03 
       1.960435245224e-02       9.583289401219e+03 
       1.973551460733e-02       9.570524926116e+03 
       1.986674198155e-02       9.557464025262e+03 
       1.999803577261e-02       9.543979654708e+03 
       2.012939720865e-02       9.530195853247e+03 
       2.026082754878e-02       9.515808820253e+03 
       2.039232808371e-02       9.501226418336e+03 
       2.052390013641e-02       9.486029716464e+03 
       2.065554506277e-02       9.470632618591e+03 
       2.078726425227e-02       9.454660528385e+03 
       2.091905912869e-02       9.438426691537e+03 
       2.105093115085e-02       9.421886303089e+03 
       2.118288181336e-02       9.404849647693e+03 
       2.131491264740e-02       9.387664471284e+03 
       2.144702522152e-02       9.370085399180e+03 
       2.157922114246e-02       9.351970409660e+03 
       2.171150205602e-02       9.333722937345e+03 
       2.184386964794e-02       9.315011505480e+03 
       2.197632564479e-02       9.296183935653e+03 
       2.210887181492e-02       9.276814092451e+03 
       2.224150996944e-02       9.257220005129e+03 
       2.237424196320e-02       9.237258325937e+03 
       2.250706969581e-02       9.217173972924e+03 
       2.263999511273e-02       9.196604472690e+03 
       2.277302020633e-02       9.175856189321e+03 
       2.290614701706e-02       9.154925432726e+03 
       2.303937763456e-02       9.133723309046e+03 
       2.317271419890e-02       9.112015784017e+03 
       2.330615890180e-02       9.090098821360e+03 
       2.343971398792e-02       9.068041685190e+03 
       2.357338175615e-02       9.045903970270e+03 
       2.370716456100e-02       9.023213678371e+03 
       2.384106481399e-02       9.000414766215e+03 
       2.397508498508e-02       8.977349294369e+03 
       2.410922760418e-02       8.954140360860e+03 
       2.424349526269e-02       8.930614579130e+03 
       2.437789061509e-02       8.906908622845e+03 
       2.451241638055e-02       8.883008825149e+03 
       2.464707534467e-02       8.858910343025e+03 
       2.478187036123e-02       8.834479964024e+03 
       2.491680435394e-02       8.809997811164e+03 
       2.505188031836e-02       8.785269341032e+03 
       2.518710132382e-02       8.760385893605e+03 
       2.532247051540e-02       8.735290426623e+03 
       2.545799111597e-02       8.710051252786e+03 
       2.559366642839e-02       8.684723475183e+03 
       2.572949983761e-02       8.659055856335e+03 
       2.586549481303e-02       8.633384669674e+03 
       2.600165491080e-02       8.607467122360e+03 
       2.613798377629e-02       8.581295570645e+03 
       2.627448514657e-02       8.555116582901e+03 
       2.641116285305e-02       8.528740048021e+03 
       2.654802082415e-02       8.502307696319e+03 
       2.668506308812e-02       8.475675255042e+03 
       2.682229377588e-02       8.448817977978e+03 
       2.695971712407e-02       8.421912370456e+03 
       2.709733747813e-02       8.394996017570e+03 
       2.723515929550e-02       8.367833593121e+03 
       2.737318714896e-02       8.340530415291e+03 
       2.751142573009e-02       8.313163587548e+03 
       2.764987985283e-02       8.285682826401e+03 
       2.778855445722e-02       8.258189442015e+03 
       2.792745461322e-02       8.230521615813e+03 
       2.806658552475e-02       8.202753300525e+03 
       2.820595253378e-02       8.174886577706e+03 
       2.834556112471e-02       8.146873895870e+03 
       2.848541692877e-02       8.118810112419e+03 
       2.862552572872e-02       8.090671602198e+03 
       2.876589346368e-02       8.062540604425e+03 
       2.890652623411e-02       8.034199134387e+03 
       2.904743030707e-02       8.005890774822e+03 
       2.918861212164e-02       7.977465486757e+03 
       2.933007829456e-02       7.949083742870e+03 
       2.947183562612e-02       7.920418009673e+03 
       2.961389110626e-02       7.891863666383e+03 
       2.975625192100e-02       7.863171461897e+03 
       2.989892545902e-02       7.834502847989e+03 
       3.004191931860e-02       7.805718506297e+03 
       3.018524131485e-02       7.776923370328e+03 
       3.032889948722e-02       7.748083506513e+03 
       3.047290210736e-02       7.719178220130e+03 
       3.061725768729e-02       7.690332519694e+03 
       3.076197498798e-02       7.661280774551e+03 
       3.090706302827e-02       7.632299670444e+03 
       3.105253109416e-02       7.603248399101e+03 
       3.119838874865e-02       7.574246850553e+03 
       3.134464584183e-02       7.545154994182e+03 
       3.149131252163e-02       7.516090715745e+03 
       3.163839924495e-02       7.486883641478e+03 
       3.178591678931e-02       7.457714568877e+03 
       3.193387626514e-02       7.428572456884e+03 
       3.208228912856e-02       7.399365158136e+03 
       3.223116719483e-02       7.370176469341e+03 
       3.238052265243e-02       7.340971577325e+03 
       3.253036807786e-02       7.311726461731e+03 
       3.268071645114e-02       7.282470431100e+03 
       3.283158117211e-02       7.253247058669e+03 
       3.298297607755e-02       7.224050158708e+03 
       3.313491545916e-02       7.194754089467e+03 
       3.328741408251e-02       7.165489447207e+03 
       3.344048720691e-02       7.136244299402e+03 
       3.359415060641e-02       7.107001680425e+03 
       3.374842059184e-02       7.077745046008e+03 
       3.390331403411e-02       7.048549792810e+03 
       3.405884838871e-02       7.019314510304e+03 
       3.421504172162e-02       6.990040245063e+03 
       3.437191273660e-02       6.960826510858e+03 
       3.452948080409e-02       6.931591202680e+03 
       3.468776599166e-02       6.902388906340e+03 
       3.484678909628e-02       6.873207406559e+03 
       3.500657167847e-02       6.843990748094e+03 
       3.516713609840e-02       6.814837807484e+03 
       3.532850555420e-02       6.785692867696e+03 
       3.549070412254e-02       6.756532249256e+03 
       3.565375680169e-02       6.727401591282e+03 
       3.581768955726e-02       6.698285805434e+03 
       3.598252937075e-02       6.669187787683e+03 
       3.614830429120e-02       6.640096707463e+03 
       3.631504349013e-02       6.611042734815e+03 
       3.648277732005e-02       6.581975656297e+03 
       3.665153737680e-02       6.552939552981e+03 
       3.682135656602e-02       6.523903780954e+03 
       3.699226917412e-02       6.494923448787e+03 
       3.716431094406e-02       6.465915467945e+03 
       3.733751915639e-02       6.436966665088e+03 
       3.751193271595e-02       6.407994481971e+03 
       3.768759224472e-02       6.379034691199e+03 
       3.786454018137e-02       6.350088455723e+03 
       3.804282088805e-02       6.321191020787e+03 
       3.822248076511e-02       6.292281451526e+03 
       3.840356837442e-02       6.263392303130e+03 
       3.858613457205e-02       6.234546438972e+03 
       3.877023265129e-02       6.205656872290e+03 
       3.895591849676e-02       6.176797818815e+03 
       3.914325075094e-02       6.147936858038e+03 
       3.933229099402e-02       6.119072152691e+03 
       3.952310393866e-02       6.090246673341e+03 
       3.971575764086e-02       6.061407418347e+03 
       3.991032372881e-02       6.032563079014e+03 
       4.010687765142e-02       6.003755050585e+03 
       4.030549894855e-02       5.974914754670e+03 
       4.050627154541e-02       5.946050585181e+03 
       4.070928407353e-02       5.917208367248e+03 
       4.091463022134e-02       5.888393194547e+03 
       4.112240911762e-02       5.859497836477e+03 
       4.133272575146e-02       5.830600559959e+03 
       4.154569143314e-02       5.801722989035e+03 
       4.176142430051e-02       5.772788766524e+03 
       4.198004987645e-02       5.743829013925e+03 
       4.220170168357e-02       5.714872853836e+03 
       4.242652192332e-02       5.685851413134e+03 
       4.265466222754e-02       5.656826649831e+03 
       4.288628449194e-02       5.627741785905e+03 
       4.312156180218e-02       5.598611733443e+03 
       4.336067946497e-02       5.569401074327e+03 
       4.360383615878e-02       5.540191794152e+03 
       4.385124522052e-02       5.510856606035e+03 
       4.410313608808e-02       5.481523909743e+03 
       4.435975592105e-02       5.452076290587e+03 
       4.462137142655e-02       5.422519467335e+03 
       4.488827092121e-02       5.392878260800e+03 
       4.516076666643e-02       5.363154393212e+03 
       4.543919752027e-02       5.333313343878e+03 
       4.572393195796e-02       5.303350037958e+03 
       4.601537152274e-02       5.273253038000e+03 
       4.631395478061e-02       5.243023621689e+03 
       4.662016186792e-02       5.212630433551e+03 
       4.693451973833e-02       5.182058716070e+03 
       4.725760823845e-02       5.151299588380e+03 
       4.759006716930e-02       5.120340879084e+03 
       4.793260452518e-02       5.089184498136e+03 
       4.828600614492e-02       5.057752194010e+03 
       4.865114706475e-02       5.026052972715e+03 
       4.902900493043e-02       4.994072800547e+03 
       4.942067591259e-02       4.961790077093e+03 
       4.982739367910e-02       4.929026405544e+03 
       5.025055211759e-02       4.895994568096e+03 
       5.069173267895e-02       4.862457127105e+03 
       5.115273743923e-02       4.828515651501e+03 
       5.163562926573e-02       4.794007449328e+03 
       5.214278083871e-02       4.758897081258e+03 
       5.267693473961e-02       4.723091536785e+03 
       5.324127738548e-02       4.686460800540e+03 
       5.383953027310e-02       4.648973762315e+03 
       5.447606277852e-02       4.610471584283e+03 
       5.515603156334e-02       4.570771343770e+03 
       5.588555227525e-02       4.529648997734e+03 
       5.667190925559e-02       4.486908277770e+03 
       5.752380746106e-02       4.442104857635e+03 
       5.845166594430e-02       4.394928713682e+03 
       5.946794059141e-02       4.344683883397e+03 
       6.058743937351e-02       4.290718299871e+03 
       6.182754674295e-02       4.232038366137e+03 
