# Matter power spectrum P(k) at redshift z=4
# for k=1.045e-05 to 8.48764 h/Mpc,
# number of wavenumbers equal to 612
#    1:k (h/Mpc)              2:P (Mpc/h)^3        
       1.045004358465e-05       3.336234233410e+00 
       2.333031646003e-05       7.438111225805e+00 
       3.625588232309e-05       1.100752646554e+01 
       4.926151484748e-05       1.489239856200e+01 
       6.238256282054e-05       1.867350104693e+01 
       7.565526530539e-05       2.252743444015e+01 
       8.911707687974e-05       2.643707958754e+01 
       1.028070072767e-04       3.031404454921e+01 
       1.167659797859e-04       3.424681266181e+01 
       1.310372128073e-04       3.826214663290e+01 
       1.456666289547e-04       4.235937861038e+01 
       1.607032960497e-04       4.653684528815e+01 
       1.761999041630e-04       5.084141281023e+01 
       1.922132824965e-04       5.527695308228e+01 
       2.088049592348e-04       5.983868469175e+01 
       2.260417664219e-04       6.458051704404e+01 
       2.439964902501e-04       6.949670468977e+01 
       2.627485646742e-04       7.461247062841e+01 
       2.823848027128e-04       7.995225843772e+01 
       3.030001548299e-04       8.553989462226e+01 
       3.246984770434e-04       9.140476368587e+01 
       3.475932824573e-04       9.757012249965e+01 
       3.718084384017e-04       1.040641829707e+02 
       3.974787570252e-04       1.109284928607e+02 
       4.247504100439e-04       1.181946994420e+02 
       4.537810789379e-04       1.258997302302e+02 
       4.847397315668e-04       1.340833929362e+02 
       5.178058974855e-04       1.427886301915e+02 
       5.531683013105e-04       1.520581272996e+02 
       5.910227121702e-04       1.619351294934e+02 
       6.315688849627e-04       1.724635965331e+02 
       6.750065137884e-04       1.836844685987e+02 
       7.215301959429e-04       1.956367436003e+02 
       7.713235180257e-04       2.083531033227e+02 
       8.245525173319e-04       2.218612204015e+02 
       8.813589235833e-04       2.361813063760e+02 
       9.418537183337e-04       2.513201864634e+02 
       1.006111625261e-03       2.672771957385e+02 
       1.074167130425e-03       2.840386955206e+02 
       1.146012510269e-03       3.015790680801e+02 
       1.221598126720e-03       3.198616858555e+02 
       1.300834972303e-03       3.388404826970e+02 
       1.383599172303e-03       3.584598386741e+02 
       1.469737934874e-03       3.786573340337e+02 
       1.559076324033e-03       3.993703476243e+02 
       1.651424225675e-03       4.205317544131e+02 
       1.746582964833e-03       4.420741465026e+02 
       1.844351177716e-03       4.639319171775e+02 
       1.944529704896e-03       4.860415509846e+02 
       2.046925420592e-03       5.083427474096e+02 
       2.151354028418e-03       5.307807975344e+02 
       2.257641930146e-03       5.533026467781e+02 
       2.365627314046e-03       5.758617906225e+02 
       2.475160621195e-03       5.984149266291e+02 
       2.586104540896e-03       6.209244528783e+02 
       2.698333668320e-03       6.433547153615e+02 
       2.811733934794e-03       6.656759794651e+02 
       2.926201898116e-03       6.878615883908e+02 
       3.041643959153e-03       7.098875404377e+02 
       3.157975553037e-03       7.317340767653e+02 
       3.275120348689e-03       7.533809370553e+02 
       3.393009479076e-03       7.748151501791e+02 
       3.511580816066e-03       7.960227274085e+02 
       3.630778297517e-03       8.169915493552e+02 
       3.750551309848e-03       8.377119956652e+02 
       3.870854126296e-03       8.581749254539e+02 
       3.991645399134e-03       8.783759944326e+02 
       4.112887702883e-03       8.983037259126e+02 
       4.234547124897e-03       9.179601025839e+02 
       4.356592899374e-03       9.373364541594e+02 
       4.478997080815e-03       9.564307829383e+02 
       4.601734253050e-03       9.752427868605e+02 
       4.724781270161e-03       9.937654001408e+02 
       4.848117025885e-03       1.012002754490e+03 
       4.971722248393e-03       1.029950128059e+03 
       5.095579317586e-03       1.047607920561e+03 
       5.219672102396e-03       1.064979802929e+03 
       5.343985815788e-03       1.082062797602e+03 
       5.468506885453e-03       1.098859913708e+03 
       5.593222838389e-03       1.115368748300e+03 
       5.718122197776e-03       1.131590166538e+03 
       5.843194390744e-03       1.147532775541e+03 
       5.968429665788e-03       1.163187680691e+03 
       6.093819018741e-03       1.178566043445e+03 
       6.219354126332e-03       1.193663647701e+03 
       6.345027286494e-03       1.208486726213e+03 
       6.470831364649e-03       1.223031570325e+03 
       6.596759745336e-03       1.237309324859e+03 
       6.722806288582e-03       1.251312625543e+03 
       6.848965290503e-03       1.265049801674e+03 
       6.975231447686e-03       1.278521702842e+03 
       7.101599824952e-03       1.291731390831e+03 
       7.228065826131e-03       1.304677551953e+03 
       7.354625167555e-03       1.317369825283e+03 
       7.481273853967e-03       1.329804282912e+03 
       7.608008156622e-03       1.341981955062e+03 
       7.734824593334e-03       1.353924007359e+03 
       7.861719910302e-03       1.365598130063e+03 
       7.988691065514e-03       1.377037375515e+03 
       8.115735213591e-03       1.388228778205e+03 
       8.242849691924e-03       1.399182606271e+03 
       8.370032007988e-03       1.409901222574e+03 
       8.497279827711e-03       1.420377949017e+03 
       8.624590964808e-03       1.430624604940e+03 
       8.751963370988e-03       1.440643899518e+03 
       8.879395126956e-03       1.450438886244e+03 
       9.006884434132e-03       1.460003021191e+03 
       9.134429607028e-03       1.469344434460e+03 
       9.262029066230e-03       1.478465058511e+03 
       9.389681331919e-03       1.487371367208e+03 
       9.517385017893e-03       1.496061235801e+03 
       9.645138826050e-03       1.504535357394e+03 
       9.772941541283e-03       1.512814419202e+03 
       9.900792026762e-03       1.520913867707e+03 
       1.002868921957e-02       1.528771288166e+03 
       1.015663212664e-02       1.536420921738e+03 
       1.028461982104e-02       1.543865115215e+03 
       1.041265143846e-02       1.551109646933e+03 
       1.054072617402e-02       1.558155926155e+03 
       1.066884327926e-02       1.565013284862e+03 
       1.079700205935e-02       1.571673574864e+03 
       1.092520187054e-02       1.578147558485e+03 
       1.105344211774e-02       1.584432788171e+03 
       1.118172225228e-02       1.590532069000e+03 
       1.131004176988e-02       1.596450236955e+03 
       1.143840020866e-02       1.602185629679e+03 
       1.156679714741e-02       1.607741658828e+03 
       1.169523220388e-02       1.613122752537e+03 
       1.182370503324e-02       1.618327654807e+03 
       1.195221532664e-02       1.623359296226e+03 
       1.208076280985e-02       1.628220436129e+03 
       1.220934724206e-02       1.632912602884e+03 
       1.233796841467e-02       1.637439470750e+03 
       1.246662615021e-02       1.641800478404e+03 
       1.259532030139e-02       1.645998009007e+03 
       1.272405075012e-02       1.650035712833e+03 
       1.285281740668e-02       1.653913610277e+03 
       1.298162020888e-02       1.657634491043e+03 
       1.311045912139e-02       1.661200947611e+03 
       1.323933413499e-02       1.664614436746e+03 
       1.336824526596e-02       1.667877326027e+03 
       1.349719255553e-02       1.670989786544e+03 
       1.362617606930e-02       1.673954591090e+03 
       1.375519589679e-02       1.676772658266e+03 
       1.388425215096e-02       1.679447729410e+03 
       1.401334496781e-02       1.681978912741e+03 
       1.414247450603e-02       1.684370347157e+03 
       1.427164094666e-02       1.686622843220e+03 
       1.440084449274e-02       1.688739804192e+03 
       1.453008536914e-02       1.690720892235e+03 
       1.465936382220e-02       1.692567288801e+03 
       1.478868011964e-02       1.694282499596e+03 
       1.491803455030e-02       1.695866750883e+03 
       1.504742742402e-02       1.697321797018e+03 
       1.517685907151e-02       1.698651894455e+03 
       1.530632984425e-02       1.699856348141e+03 
       1.543584011438e-02       1.700937494614e+03 
       1.556539027473e-02       1.701896441111e+03 
       1.569498073867e-02       1.702747397299e+03 
       1.582461194022e-02       1.703435413305e+03 
       1.595428433395e-02       1.704030799461e+03 
       1.608399839510e-02       1.704491146368e+03 
       1.621375461959e-02       1.704870575287e+03 
       1.634355352408e-02       1.705131323182e+03 
       1.647339564609e-02       1.705321198540e+03 
       1.660328154410e-02       1.705366182460e+03 
       1.673321179765e-02       1.705292356336e+03 
       1.686318700753e-02       1.705119741529e+03 
       1.699320779588e-02       1.704838925870e+03 
       1.712327480645e-02       1.704455133316e+03 
       1.725338870472e-02       1.703982330118e+03 
       1.738355017815e-02       1.703394746172e+03 
       1.751375993644e-02       1.702714475177e+03 
       1.764401871169e-02       1.701913607494e+03 
       1.777432725877e-02       1.701050769524e+03 
       1.790468635550e-02       1.700039362863e+03 
       1.803509680303e-02       1.698968472805e+03 
       1.816555942610e-02       1.697801837617e+03 
       1.829607507341e-02       1.696536353934e+03 
       1.842664461792e-02       1.695254934616e+03 
       1.855726895726e-02       1.693784920517e+03 
       1.868794901408e-02       1.692266653965e+03 
       1.881868573646e-02       1.690658449935e+03 
       1.894948009832e-02       1.688997528697e+03 
       1.908033309987e-02       1.687228592074e+03 
       1.921124576803e-02       1.685382752263e+03 
       1.934221915691e-02       1.683479454027e+03 
       1.947325434832e-02       1.681471697006e+03 
       1.960435245224e-02       1.679347129794e+03 
       1.973551460733e-02       1.677192479017e+03 
       1.986674198155e-02       1.674931802315e+03 
       1.999803577261e-02       1.672622715529e+03 
       2.012939720865e-02       1.670241225277e+03 
       2.026082754878e-02       1.667816521714e+03 
       2.039232808371e-02       1.665299076880e+03 
       2.052390013641e-02       1.662708665965e+03 
       2.065554506277e-02       1.660048609568e+03 
       2.078726425227e-02       1.657316546132e+03 
       2.091905912869e-02       1.654517402462e+03 
       2.105093115085e-02       1.651659234255e+03 
       2.118288181336e-02       1.648740925351e+03 
       2.131491264740e-02       1.645716052114e+03 
       2.144702522152e-02       1.642690369257e+03 
       2.157922114246e-02       1.639593093724e+03 
       2.171150205602e-02       1.636437594463e+03 
       2.184386964794e-02       1.633226062760e+03 
       2.197632564479e-02       1.629895319430e+03 
       2.210887181492e-02       1.626562964664e+03 
       2.224150996944e-02       1.623216598037e+03 
       2.237424196320e-02       1.619781649204e+03 
       2.250706969581e-02       1.616286281339e+03 
       2.263999511273e-02       1.612730410647e+03 
       2.277302020633e-02       1.609141062490e+03 
       2.290614701706e-02       1.605505826800e+03 
       2.303937763456e-02       1.601763304469e+03 
       2.317271419890e-02       1.598055904233e+03 
       2.330615890180e-02       1.594286470751e+03 
       2.343971398792e-02       1.590460356480e+03 
       2.357338175615e-02       1.586539467534e+03 
       2.370716456100e-02       1.582623714827e+03 
       2.384106481399e-02       1.578664259823e+03 
       2.397508498508e-02       1.574709139967e+03 
       2.410922760418e-02       1.570669740998e+03 
       2.424349526269e-02       1.566588449842e+03 
       2.437789061509e-02       1.562459423495e+03 
       2.451241638055e-02       1.558313693886e+03 
       2.464707534467e-02       1.554125487669e+03 
       2.478187036123e-02       1.549841744124e+03 
       2.491680435394e-02       1.545576283979e+03 
       2.505188031836e-02       1.541277332763e+03 
       2.518710132382e-02       1.536957677992e+03 
       2.532247051540e-02       1.532596966777e+03 
       2.545799111597e-02       1.528201354659e+03 
       2.559366642839e-02       1.523778280215e+03 
       2.572949983761e-02       1.519329298415e+03 
       2.586549481303e-02       1.514868155019e+03 
       2.600165491080e-02       1.510367771364e+03 
       2.613798377629e-02       1.505836559256e+03 
       2.627448514657e-02       1.501220325247e+03 
       2.641116285305e-02       1.496622963892e+03 
       2.654802082415e-02       1.492004836460e+03 
       2.668506308812e-02       1.487373726358e+03 
       2.682229377588e-02       1.482709613740e+03 
       2.695971712407e-02       1.478028205994e+03 
       2.709733747813e-02       1.473318031440e+03 
       2.723515929550e-02       1.468614990686e+03 
       2.737318714896e-02       1.463874722816e+03 
       2.751142573009e-02       1.459106072608e+03 
       2.764987985283e-02       1.454314523147e+03 
       2.778855445722e-02       1.449483483544e+03 
       2.792745461322e-02       1.444659929826e+03 
       2.806658552475e-02       1.439823689163e+03 
       2.820595253378e-02       1.434962015037e+03 
       2.834556112471e-02       1.430092931512e+03 
       2.848541692877e-02       1.425154316520e+03 
       2.862552572872e-02       1.420247254198e+03 
       2.876589346368e-02       1.415350708788e+03 
       2.890652623411e-02       1.410420980127e+03 
       2.904743030707e-02       1.405474593153e+03 
       2.918861212164e-02       1.400513216557e+03 
       2.933007829456e-02       1.395530899698e+03 
       2.947183562612e-02       1.390550427823e+03 
       2.961389110626e-02       1.385558768770e+03 
       2.975625192100e-02       1.380527297784e+03 
       2.989892545902e-02       1.375516410029e+03 
       3.004191931860e-02       1.370504253589e+03 
       3.018524131485e-02       1.365476812007e+03 
       3.032889948722e-02       1.360387463774e+03 
       3.047290210736e-02       1.355337124066e+03 
       3.061725768729e-02       1.350279617549e+03 
       3.076197498798e-02       1.345247880242e+03 
       3.090706302827e-02       1.340178801438e+03 
       3.105253109416e-02       1.335086948463e+03 
       3.119838874865e-02       1.330011756250e+03 
       3.134464584183e-02       1.324925593717e+03 
       3.149131252163e-02       1.319788953976e+03 
       3.163839924495e-02       1.314721070976e+03 
       3.178591678931e-02       1.309629031041e+03 
       3.193387626514e-02       1.304487661200e+03 
       3.208228912856e-02       1.299374694658e+03 
       3.223116719483e-02       1.294262623216e+03 
       3.238052265243e-02       1.289146966310e+03 
       3.253036807786e-02       1.284065499233e+03 
       3.268071645114e-02       1.278946831537e+03 
       3.283158117211e-02       1.273819635505e+03 
       3.298297607755e-02       1.268703199798e+03 
       3.313491545916e-02       1.263581513292e+03 
       3.328741408251e-02       1.258409758086e+03 
       3.344048720691e-02       1.253283595390e+03 
       3.359415060641e-02       1.248164676946e+03 
       3.374842059184e-02       1.243039766723e+03 
       3.390331403411e-02       1.237915017788e+03 
       3.405884838871e-02       1.232793065983e+03 
       3.421504172162e-02       1.227666056755e+03 
       3.437191273660e-02       1.222571591298e+03 
       3.452948080409e-02       1.217456677402e+03 
       3.468776599166e-02       1.212293617136e+03 
       3.484678909628e-02       1.207172893854e+03 
       3.500657167847e-02       1.202057673148e+03 
       3.516713609840e-02       1.196940450239e+03 
       3.532850555420e-02       1.191826848048e+03 
       3.549070412254e-02       1.186716497157e+03 
       3.565375680169e-02       1.181600797455e+03 
       3.581768955726e-02       1.176529387709e+03 
       3.598252937075e-02       1.171403193882e+03 
       3.614830429120e-02       1.166316564597e+03 
       3.631504349013e-02       1.161172681973e+03 
       3.648277732005e-02       1.156101682272e+03 
       3.665153737680e-02       1.151020337047e+03 
       3.682135656602e-02       1.145915019300e+03 
       3.699226917412e-02       1.140821286303e+03 
       3.716431094406e-02       1.135698544850e+03 
       3.733751915639e-02       1.130611307157e+03 
       3.751193271595e-02       1.125548212176e+03 
       3.768759224472e-02       1.120469066126e+03 
       3.786454018137e-02       1.115388727415e+03 
       3.804282088805e-02       1.110298285350e+03 
       3.822248076511e-02       1.105226979089e+03 
       3.840356837442e-02       1.100153009111e+03 
       3.858613457205e-02       1.095060006983e+03 
       3.877023265129e-02       1.089993827971e+03 
       3.895591849676e-02       1.084929326728e+03 
       3.914325075094e-02       1.079857820636e+03 
       3.933229099402e-02       1.074755975480e+03 
       3.952310393866e-02       1.069686644853e+03 
       3.971575764086e-02       1.064618226976e+03 
       3.991032372881e-02       1.059575687412e+03 
       4.010687765142e-02       1.054494147783e+03 
       4.030549894855e-02       1.049431807761e+03 
       4.050627154541e-02       1.044361763861e+03 
       4.070928407353e-02       1.039250297066e+03 
       4.091463022134e-02       1.034172916190e+03 
       4.112240911762e-02       1.029093174570e+03 
       4.133272575146e-02       1.024020279799e+03 
       4.154569143314e-02       1.018937476205e+03 
       4.176142430051e-02       1.013849195653e+03 
       4.198004987645e-02       1.008779204815e+03 
       4.220170168357e-02       1.003676954047e+03 
       4.242652192332e-02       9.985776968432e+02 
       4.265466222754e-02       9.934695496635e+02 
       4.288628449194e-02       9.883109471731e+02 
       4.312156180218e-02       9.831820508750e+02 
       4.336067946497e-02       9.780511014446e+02 
       4.360383615878e-02       9.729041626160e+02 
       4.385124522052e-02       9.677471661170e+02 
       4.410313608808e-02       9.625745754489e+02 
       4.435975592105e-02       9.574185063402e+02 
       4.462137142655e-02       9.522152971250e+02 
       4.488827092121e-02       9.469627390020e+02 
       4.516076666643e-02       9.417241603507e+02 
       4.543919752027e-02       9.364764756669e+02 
       4.572393195796e-02       9.311993457069e+02 
       4.601537152274e-02       9.259005793954e+02 
       4.631395478061e-02       9.205918676587e+02 
       4.662016186792e-02       9.152448692701e+02 
       4.693451973833e-02       9.098624454081e+02 
       4.725760823845e-02       9.044097369212e+02 
       4.759006716930e-02       8.989814977318e+02 
       4.793260452518e-02       8.934932530018e+02 
       4.828600614492e-02       8.879579068479e+02 
       4.865114706475e-02       8.823500255111e+02 
       4.902900493043e-02       8.767161697481e+02 
       4.942067591259e-02       8.710441048317e+02 
       4.982739367910e-02       8.652921192881e+02 
       5.025055211759e-02       8.594633626630e+02 
       5.069173267895e-02       8.535664524701e+02 
       5.115273743923e-02       8.475863297199e+02 
       5.163562926573e-02       8.414936229804e+02 
       5.214278083871e-02       8.353193615635e+02 
       5.267693473961e-02       8.290151673206e+02 
       5.324127738548e-02       8.225508657634e+02 
       5.383953027310e-02       8.159729690685e+02 
       5.447606277852e-02       8.092009005501e+02 
       5.515603156334e-02       8.022095358921e+02 
       5.588555227525e-02       7.949888374613e+02 
       5.667190925559e-02       7.874596166347e+02 
       5.752380746106e-02       7.796021609338e+02 
       5.845166594430e-02       7.712851913244e+02 
       5.946794059141e-02       7.624835739902e+02 
       6.058743937351e-02       7.530030384105e+02 
       6.182754674295e-02       7.426846968881e+02 
