# Matter power spectrum P(k) at redshift z=1
# for k=1.045e-05 to 8.48764 h/Mpc,
# number of wavenumbers equal to 612
#    1:k (h/Mpc)              2:P (Mpc/h)^3        
       1.045004358465e-05       1.937906184148e+01 
       2.333031646003e-05       4.250169334995e+01 
       3.625588232309e-05       6.379261976693e+01 
       4.926151484748e-05       8.578611050931e+01 
       6.238256282054e-05       1.077199550384e+02 
       7.565526530539e-05       1.298690253650e+02 
       8.911707687974e-05       1.522345220615e+02 
       1.028070072767e-04       1.746168564165e+02 
       1.167659797859e-04       1.972283183240e+02 
       1.310372128073e-04       2.203868190503e+02 
       1.456666289547e-04       2.439814176748e+02 
       1.607032960497e-04       2.680819914275e+02 
       1.761999041630e-04       2.928667815519e+02 
       1.922132824965e-04       3.183805517591e+02 
       2.088049592348e-04       3.447101721942e+02 
       2.260417664219e-04       3.719882002499e+02 
       2.439964902501e-04       4.002841475451e+02 
       2.627485646742e-04       4.297403218806e+02 
       2.823848027128e-04       4.604792928643e+02 
       3.030001548299e-04       4.926371575488e+02 
       3.246984770434e-04       5.263731911832e+02 
       3.475932824573e-04       5.618390905316e+02 
       3.718084384017e-04       5.992041772613e+02 
       3.974787570252e-04       6.386757409331e+02 
       4.247504100439e-04       6.804465414595e+02 
       4.537810789379e-04       7.247320796167e+02 
       4.847397315668e-04       7.717591410559e+02 
       5.178058974855e-04       8.217670430314e+02 
       5.531683013105e-04       8.750002428500e+02 
       5.910227121702e-04       9.317056318378e+02 
       6.315688849627e-04       9.921291404404e+02 
       6.750065137884e-04       1.056505435969e+03 
       7.215301959429e-04       1.125052345794e+03 
       7.713235180257e-04       1.197960209178e+03 
       8.245525173319e-04       1.275383599930e+03 
       8.813589235833e-04       1.357427769997e+03 
       9.418537183337e-04       1.444147380605e+03 
       1.006111625261e-03       1.535532651060e+03 
       1.074167130425e-03       1.631505211763e+03 
       1.146012510269e-03       1.731927922246e+03 
       1.221598126720e-03       1.836592600722e+03 
       1.300834972303e-03       1.945238989631e+03 
       1.383599172303e-03       2.057557387542e+03 
       1.469737934874e-03       2.173186667173e+03 
       1.559076324033e-03       2.291775921393e+03 
       1.651424225675e-03       2.412938501839e+03 
       1.746582964833e-03       2.536286845368e+03 
       1.844351177716e-03       2.661443943922e+03 
       1.944529704896e-03       2.788042751355e+03 
       2.046925420592e-03       2.915735560827e+03 
       2.151354028418e-03       3.044208024713e+03 
       2.257641930146e-03       3.173157258969e+03 
       2.365627314046e-03       3.302309639316e+03 
       2.475160621195e-03       3.431427802665e+03 
       2.586104540896e-03       3.560282542189e+03 
       2.698333668320e-03       3.688679494316e+03 
       2.811733934794e-03       3.816445178626e+03 
       2.926201898116e-03       3.943427812575e+03 
       3.041643959153e-03       4.069488660213e+03 
       3.157975553037e-03       4.194517099374e+03 
       3.275120348689e-03       4.318393801480e+03 
       3.393009479076e-03       4.441045372673e+03 
       3.511580816066e-03       4.562392546376e+03 
       3.630778297517e-03       4.682364106772e+03 
       3.750551309848e-03       4.800906087674e+03 
       3.870854126296e-03       4.917964872551e+03 
       3.991645399134e-03       5.033517683379e+03 
       4.112887702883e-03       5.147497497943e+03 
       4.234547124897e-03       5.259916792921e+03 
       4.356592899374e-03       5.370723725779e+03 
       4.478997080815e-03       5.479910172223e+03 
       4.601734253050e-03       5.587472187861e+03 
       4.724781270161e-03       5.693370559266e+03 
       4.848117025885e-03       5.797627910699e+03 
       4.971722248393e-03       5.900218145853e+03 
       5.095579317586e-03       6.001141633216e+03 
       5.219672102396e-03       6.100423257295e+03 
       5.343985815788e-03       6.198043005280e+03 
       5.468506885453e-03       6.294019662435e+03 
       5.593222838389e-03       6.388338674970e+03 
       5.718122197776e-03       6.481006026754e+03 
       5.843194390744e-03       6.572071775540e+03 
       5.968429665788e-03       6.661483140572e+03 
       6.093819018741e-03       6.749295993442e+03 
       6.219354126332e-03       6.835590178740e+03 
       6.345027286494e-03       6.920393292972e+03 
       6.470831364649e-03       7.003403472143e+03 
       6.596759745336e-03       7.084876574307e+03 
       6.722806288582e-03       7.164781438193e+03 
       6.848965290503e-03       7.243163964442e+03 
       6.975231447686e-03       7.320030814944e+03 
       7.101599824952e-03       7.395392379230e+03 
       7.228065826131e-03       7.469239699280e+03 
       7.354625167555e-03       7.541624790102e+03 
       7.481273853967e-03       7.612289200835e+03 
       7.608008156622e-03       7.681704878701e+03 
       7.734824593334e-03       7.749768392074e+03 
       7.861719910302e-03       7.816294378230e+03 
       7.988691065514e-03       7.881475459102e+03 
       8.115735213591e-03       7.945226733855e+03 
       8.242849691924e-03       8.007620392893e+03 
       8.370032007988e-03       8.068665285919e+03 
       8.497279827711e-03       8.128315515124e+03 
       8.624590964808e-03       8.186648401110e+03 
       8.751963370988e-03       8.243680087266e+03 
       8.879395126956e-03       8.299428281242e+03 
       9.006884434132e-03       8.353842717353e+03 
       9.134429607028e-03       8.406977305645e+03 
       9.262029066230e-03       8.458848031613e+03 
       9.389681331919e-03       8.509495089134e+03 
       9.517385017893e-03       8.558896729268e+03 
       9.645138826050e-03       8.607083035826e+03 
       9.772941541283e-03       8.654042843108e+03 
       9.900792026762e-03       8.699818281233e+03 
       1.002868921957e-02       8.744439979143e+03 
       1.015663212664e-02       8.787911218132e+03 
       1.028461982104e-02       8.830216708361e+03 
       1.041265143846e-02       8.871380000092e+03 
       1.054072617402e-02       8.911403167267e+03 
       1.066884327926e-02       8.950333397240e+03 
       1.079700205935e-02       8.988139621910e+03 
       1.092520187054e-02       9.024871620937e+03 
       1.105344211774e-02       9.060521582850e+03 
       1.118172225228e-02       9.095114050868e+03 
       1.131004176988e-02       9.128657472398e+03 
       1.143840020866e-02       9.161154242940e+03 
       1.156679714741e-02       9.192624913609e+03 
       1.169523220388e-02       9.223084114994e+03 
       1.182370503324e-02       9.252536513119e+03 
       1.195221532664e-02       9.281003240845e+03 
       1.208076280985e-02       9.308492374554e+03 
       1.220934724206e-02       9.335010723034e+03 
       1.233796841467e-02       9.360579647575e+03 
       1.246662615021e-02       9.385196891062e+03 
       1.259532030139e-02       9.408877331566e+03 
       1.272405075012e-02       9.431646897754e+03 
       1.285281740668e-02       9.453500198779e+03 
       1.298162020888e-02       9.474455036639e+03 
       1.311045912139e-02       9.494525374522e+03 
       1.323933413499e-02       9.513717985812e+03 
       1.336824526596e-02       9.532047138096e+03 
       1.349719255553e-02       9.549515864777e+03 
       1.362617606930e-02       9.566145616023e+03 
       1.375519589679e-02       9.581937679783e+03 
       1.388425215096e-02       9.596907531094e+03 
       1.401334496781e-02       9.611053676685e+03 
       1.414247450603e-02       9.624399846983e+03 
       1.427164094666e-02       9.636950717885e+03 
       1.440084449274e-02       9.648725297462e+03 
       1.453008536914e-02       9.659722340787e+03 
       1.465936382220e-02       9.669952467255e+03 
       1.478868011964e-02       9.679433062980e+03 
       1.491803455030e-02       9.688170256034e+03 
       1.504742742402e-02       9.696172711371e+03 
       1.517685907151e-02       9.703468378156e+03 
       1.530632984425e-02       9.710041732577e+03 
       1.543584011438e-02       9.715405397252e+03 
       1.556539027473e-02       9.720559248776e+03 
       1.569498073867e-02       9.725166749991e+03 
       1.582461194022e-02       9.729001026510e+03 
       1.595428433395e-02       9.732057305789e+03 
       1.608399839510e-02       9.734290195759e+03 
       1.621375461959e-02       9.736128907405e+03 
       1.634355352408e-02       9.737279570900e+03 
       1.647339564609e-02       9.738272389535e+03 
       1.660328154410e-02       9.738250036812e+03 
       1.673321179765e-02       9.737521452775e+03 
       1.686318700753e-02       9.736196554101e+03 
       1.699320779588e-02       9.734255039711e+03 
       1.712327480645e-02       9.731756630725e+03 
       1.725338870472e-02       9.728827197281e+03 
       1.738355017815e-02       9.725106498560e+03 
       1.751375993644e-02       9.720501922880e+03 
       1.764401871169e-02       9.715991342163e+03 
       1.777432725877e-02       9.710867587458e+03 
       1.790468635550e-02       9.704538649518e+03 
       1.803509680303e-02       9.698082893019e+03 
       1.816555942610e-02       9.691088280750e+03 
       1.829607507341e-02       9.683518074880e+03 
       1.842664461792e-02       9.675818346949e+03 
       1.855726895726e-02       9.667282684640e+03 
       1.868794901408e-02       9.658286667648e+03 
       1.881868573646e-02       9.648766875770e+03 
       1.894948009832e-02       9.639122654468e+03 
       1.908033309987e-02       9.628696289803e+03 
       1.921124576803e-02       9.617930388664e+03 
       1.934221915691e-02       9.606462403788e+03 
       1.947325434832e-02       9.594694704266e+03 
       1.960435245224e-02       9.582518357412e+03 
       1.973551460733e-02       9.569993973923e+03 
       1.986674198155e-02       9.556594023851e+03 
       1.999803577261e-02       9.543129249872e+03 
       2.012939720865e-02       9.529241868497e+03 
       2.026082754878e-02       9.514881968155e+03 
       2.039232808371e-02       9.500702164354e+03 
       2.052390013641e-02       9.485717760192e+03 
       2.065554506277e-02       9.470280961348e+03 
       2.078726425227e-02       9.454346508715e+03 
       2.091905912869e-02       9.437617313995e+03 
       2.105093115085e-02       9.421036141158e+03 
       2.118288181336e-02       9.404441937002e+03 
       2.131491264740e-02       9.386929133905e+03 
       2.144702522152e-02       9.369476667837e+03 
       2.157922114246e-02       9.351627991115e+03 
       2.171150205602e-02       9.333361634009e+03 
       2.184386964794e-02       9.314768599498e+03 
       2.197632564479e-02       9.295201326284e+03 
       2.210887181492e-02       9.275938603520e+03 
       2.224150996944e-02       9.256887781246e+03 
       2.237424196320e-02       9.237088256531e+03 
       2.250706969581e-02       9.216865698843e+03 
       2.263999511273e-02       9.195792112760e+03 
       2.277302020633e-02       9.175174346998e+03 
       2.290614701706e-02       9.154499832787e+03 
       2.303937763456e-02       9.132647496668e+03 
       2.317271419890e-02       9.111544975855e+03 
       2.330615890180e-02       9.089876363192e+03 
       2.343971398792e-02       9.067859850954e+03 
       2.357338175615e-02       9.044922930246e+03 
       2.370716456100e-02       9.022363531526e+03 
       2.384106481399e-02       8.999543290919e+03 
       2.397508498508e-02       8.977102986951e+03 
       2.410922760418e-02       8.953828551229e+03 
       2.424349526269e-02       8.929883671490e+03 
       2.437789061509e-02       8.906036791281e+03 
       2.451241638055e-02       8.882610290058e+03 
       2.464707534467e-02       8.858577910436e+03 
       2.478187036123e-02       8.833556475197e+03 
       2.491680435394e-02       8.809022305462e+03 
       2.505188031836e-02       8.784286299488e+03 
       2.518710132382e-02       8.759528264334e+03 
       2.532247051540e-02       8.734465092783e+03 
       2.545799111597e-02       8.709190021354e+03 
       2.559366642839e-02       8.683777225211e+03 
       2.572949983761e-02       8.658207060926e+03 
       2.586549481303e-02       8.632404344634e+03 
       2.600165491080e-02       8.606912459689e+03 
       2.613798377629e-02       8.581036398198e+03 
       2.627448514657e-02       8.554110533875e+03 
       2.641116285305e-02       8.527750816668e+03 
       2.654802082415e-02       8.501229314966e+03 
       2.668506308812e-02       8.474726574440e+03 
       2.682229377588e-02       8.447966202231e+03 
       2.695971712407e-02       8.421108102392e+03 
       2.709733747813e-02       8.394070620022e+03 
       2.723515929550e-02       8.367031907582e+03 
       2.737318714896e-02       8.340207862856e+03 
       2.751142573009e-02       8.312875301762e+03 
       2.764987985283e-02       8.285384010835e+03 
       2.778855445722e-02       8.257576505309e+03 
       2.792745461322e-02       8.229958633829e+03 
       2.806658552475e-02       8.202265417585e+03 
       2.820595253378e-02       8.174412113786e+03 
       2.834556112471e-02       8.146535376284e+03 
       2.848541692877e-02       8.117961784839e+03 
       2.862552572872e-02       8.089864067520e+03 
       2.876589346368e-02       8.061791629516e+03 
       2.890652623411e-02       8.033827236272e+03 
       2.904743030707e-02       8.005527747195e+03 
       2.918861212164e-02       7.977115474542e+03 
       2.933007829456e-02       7.948201545236e+03 
       2.947183562612e-02       7.919920870718e+03 
       2.961389110626e-02       7.891419987431e+03 
       2.975625192100e-02       7.862631531083e+03 
       2.989892545902e-02       7.833991949605e+03 
       3.004191931860e-02       7.805380582454e+03 
       3.018524131485e-02       7.776637736033e+03 
       3.032889948722e-02       7.747253226666e+03 
       3.047290210736e-02       7.718378108350e+03 
       3.061725768729e-02       7.689463580017e+03 
       3.076197498798e-02       7.660943547815e+03 
       3.090706302827e-02       7.631987891933e+03 
       3.105253109416e-02       7.602458985747e+03 
       3.119838874865e-02       7.573690985868e+03 
       3.134464584183e-02       7.544741675802e+03 
       3.149131252163e-02       7.515100372740e+03 
       3.163839924495e-02       7.486423998838e+03 
       3.178591678931e-02       7.457398427141e+03 
       3.193387626514e-02       7.427746973950e+03 
       3.208228912856e-02       7.398543395064e+03 
       3.223116719483e-02       7.369352125170e+03 
       3.238052265243e-02       7.340125529280e+03 
       3.253036807786e-02       7.311394448546e+03 
       3.268071645114e-02       7.281826042831e+03 
       3.283158117211e-02       7.252771032528e+03 
       3.298297607755e-02       7.223665248279e+03 
       3.313491545916e-02       7.194465681329e+03 
       3.328741408251e-02       7.164612110359e+03 
       3.344048720691e-02       7.135352326129e+03 
       3.359415060641e-02       7.106198061551e+03 
       3.374842059184e-02       7.076963341958e+03 
       3.390331403411e-02       7.047730095796e+03 
       3.405884838871e-02       7.018507086648e+03 
       3.421504172162e-02       6.989221484792e+03 
       3.437191273660e-02       6.960340853967e+03 
       3.452948080409e-02       6.931317522923e+03 
       3.468776599166e-02       6.901517278168e+03 
       3.484678909628e-02       6.872332899003e+03 
       3.500657167847e-02       6.843226319225e+03 
       3.516713609840e-02       6.814061107896e+03 
       3.532850555420e-02       6.784886223243e+03 
       3.549070412254e-02       6.755793309812e+03 
       3.565375680169e-02       6.726598005445e+03 
       3.581768955726e-02       6.697700688436e+03 
       3.598252937075e-02       6.668705945386e+03 
       3.614830429120e-02       6.639813013129e+03 
       3.631504349013e-02       6.610202921212e+03 
       3.648277732005e-02       6.581584393718e+03 
       3.665153737680e-02       6.552692438617e+03 
       3.682135656602e-02       6.523547259599e+03 
       3.699226917412e-02       6.494536666807e+03 
       3.716431094406e-02       6.465118236084e+03 
       3.733751915639e-02       6.436160878159e+03 
       3.751193271595e-02       6.407525035274e+03 
       3.768759224472e-02       6.378669406077e+03 
       3.786454018137e-02       6.349772773283e+03 
       3.804282088805e-02       6.320456995045e+03 
       3.822248076511e-02       6.291789754878e+03 
       3.840356837442e-02       6.262980385187e+03 
       3.858613457205e-02       6.233985940209e+03 
       3.877023265129e-02       6.205221479305e+03 
       3.895591849676e-02       6.176156211486e+03 
       3.914325075094e-02       6.147581957774e+03 
       3.933229099402e-02       6.118334746990e+03 
       3.952310393866e-02       6.089509872350e+03 
       3.971575764086e-02       6.060668497561e+03 
       3.991032372881e-02       6.031955182654e+03 
       4.010687765142e-02       6.003005412844e+03 
       4.030549894855e-02       5.974461065575e+03 
       4.050627154541e-02       5.945704720539e+03 
       4.070928407353e-02       5.916390604199e+03 
       4.091463022134e-02       5.887532759449e+03 
       4.112240911762e-02       5.858655270320e+03 
       4.133272575146e-02       5.829875755274e+03 
       4.154569143314e-02       5.800997346796e+03 
       4.176142430051e-02       5.772087272214e+03 
       4.198004987645e-02       5.743250339553e+03 
       4.220170168357e-02       5.714253482347e+03 
       4.242652192332e-02       5.685492822203e+03 
       4.265466222754e-02       5.656256433634e+03 
       4.288628449194e-02       5.626947630447e+03 
       4.312156180218e-02       5.597813154333e+03 
       4.336067946497e-02       5.568705771047e+03 
       4.360383615878e-02       5.539480785783e+03 
       4.385124522052e-02       5.510197750883e+03 
       4.410313608808e-02       5.480828666437e+03 
       4.435975592105e-02       5.451522372684e+03 
       4.462137142655e-02       5.421971436063e+03 
       4.488827092121e-02       5.392132804701e+03 
       4.516076666643e-02       5.362400047269e+03 
       4.543919752027e-02       5.332663717310e+03 
       4.572393195796e-02       5.302679003713e+03 
       4.601537152274e-02       5.272627346201e+03 
       4.631395478061e-02       5.242479946227e+03 
       4.662016186792e-02       5.212327917183e+03 
       4.693451973833e-02       5.181779285526e+03 
       4.725760823845e-02       5.150568617235e+03 
       4.759006716930e-02       5.119963764012e+03 
       4.793260452518e-02       5.088817069496e+03 
       4.828600614492e-02       5.057403598981e+03 
       4.865114706475e-02       5.025397235775e+03 
       4.902900493043e-02       4.993429057941e+03 
       4.942067591259e-02       4.961359618918e+03 
       4.982739367910e-02       4.928727795137e+03 
       5.025055211759e-02       4.895382982133e+03 
       5.069173267895e-02       4.861956903509e+03 
       5.115273743923e-02       4.828222475973e+03 
       5.163562926573e-02       4.793553968381e+03 
       5.214278083871e-02       4.758531303976e+03 
       5.267693473961e-02       4.722738598586e+03 
       5.324127738548e-02       4.685853424060e+03 
       5.383953027310e-02       4.648602300818e+03 
       5.447606277852e-02       4.610128898246e+03 
       5.515603156334e-02       4.570158115871e+03 
       5.588555227525e-02       4.529300777237e+03 
       5.667190925559e-02       4.486470818030e+03 
       5.752380746106e-02       4.441830592868e+03 
       5.845166594430e-02       4.394338126063e+03 
       5.946794059141e-02       4.344386743296e+03 
       6.058743937351e-02       4.290246417022e+03 
       6.182754674295e-02       4.231721351670e+03 
