# dimensionless total lensed [l(l+1)/2pi] C_l's
# for l=2 to 2500, i.e. number of multipoles equal to 2499
#
# -> if you prefer output in CAMB/HealPix/LensPix units/order, set 'format' to 'camb' in input file
# -> if you don't want to see such a header, set 'headers' to 'no' in input file
# -> for CMB lensing (phi), these are C_l^phi-phi for the lensing potential.
#    Remember the conversion factors:
#    C_l^dd (deflection) = l(l+1) C_l^phi-phi
#    C_l^gg (shear/convergence) = 1/4 (l(l+1))^2 C_l^phi-phi
#
# 1:l     2:TT                     3:EE                     4:TE                     5:BB                     6:phiphi                 7:TPhi                   8:Ephi               
    2       1.495430887230e-10       7.309203303299e-15       4.815082865299e-13       2.538023654817e-19       8.603244815121e-09       4.849539922894e-10      -2.515783956042e-12 
    3       1.409372034135e-10       1.238833703460e-14       6.068655408728e-13       5.078373612974e-19       5.391782020157e-09       3.465189254909e-10      -2.211460277986e-12 
    4       1.324641486082e-10       1.446590041197e-14       6.277929965903e-13       8.469043584755e-19       3.761685653175e-09       2.636092778852e-10      -1.764092870321e-12 
    5       1.257535009122e-10       1.337976508385e-14       5.879507457621e-13       1.271291025119e-18       2.810349454599e-09       2.090658347229e-10      -1.309522534581e-12 
    6       1.208094307790e-10       1.032488302794e-14       5.173950457970e-13       1.781338327597e-18       2.196000923925e-09       1.706692926544e-10      -8.948495473845e-13 
    7       1.173350229942e-10       6.843990818397e-15       4.365308396334e-13       2.377429216622e-18       1.770901631580e-09       1.423270272546e-10      -5.443927126671e-13 
    8       1.150104419138e-10       4.045445565466e-15       3.576610235313e-13       3.059976090703e-18       1.462492805028e-09       1.206747578130e-10      -2.689410761219e-13 
    9       1.135912241496e-10       2.340188384034e-15       2.880579741865e-13       3.829407532814e-18       1.231123739752e-09       1.036939062811e-10      -7.010721084714e-14 
   10       1.128626341112e-10       1.576334436820e-15       2.317776999944e-13       4.686154843438e-18       1.052796352214e-09       9.012543392836e-11       5.744932701464e-14 
   11       1.126843881059e-10       1.351528601839e-15       1.905532112130e-13       5.630638899107e-18       8.850732147074e-10       7.935165235739e-11       1.233251019062e-13 
   12       1.129479323324e-10       1.294966360878e-15       1.640575345305e-13       6.663257850105e-18       7.733396251291e-10       7.014360470729e-11       1.421552990918e-13 
   13       1.135332907746e-10       1.208447587586e-15       1.505220194014e-13       7.784376134602e-18       6.816263429014e-10       6.261842565201e-11       1.277280134851e-13 
   14       1.143418947398e-10       1.063770714493e-15       1.473945155807e-13       8.994315230771e-18       6.053231066220e-10       5.609186146480e-11       9.279134941448e-14 
   15       1.153801337976e-10       9.208157930748e-16       1.516607350794e-13       1.029334649553e-17       5.411001387369e-10       5.063956662344e-11       4.959016953710e-14 
   16       1.166093887121e-10       8.410566779171e-16       1.602769323476e-13       1.168168635153e-17       4.864993758508e-10       4.601906562944e-11       7.230991461347e-15 
   17       1.179466474245e-10       8.419072239172e-16       1.707633627764e-13       1.315949398649e-17       4.396623700890e-10       4.203028345372e-11      -2.793057943330e-14 
   18       1.193954608206e-10       8.958625421060e-16       1.812535494857e-13       1.472687039439e-17       3.990108292322e-10       3.848708369877e-11      -5.233620542394e-14 
   19       1.209638921115e-10       9.702391079135e-16       1.907678900931e-13       1.638386732286e-17       3.639023205349e-10       3.536017743194e-11      -6.510503821062e-14 
   20       1.225964484750e-10       1.031557308501e-15       1.985631112658e-13       1.813047899992e-17       3.329804588277e-10       3.259715214021e-11      -6.707227730959e-14 
   21       1.243050061052e-10       1.082744225593e-15       2.047186841794e-13       1.996666744184e-17       3.057594063352e-10       3.015371093392e-11      -6.038755325907e-14 
   22       1.260890548841e-10       1.141912841897e-15       2.096872857725e-13       2.189235256649e-17       2.815887239489e-10       2.794820337396e-11      -4.841031896558e-14 
   23       1.279376781288e-10       1.228458873449e-15       2.139168621647e-13       2.390744227231e-17       2.601363353951e-10       2.594959128104e-11      -3.407867948172e-14 
   24       1.298187426998e-10       1.360981202240e-15       2.179278425722e-13       2.601182250525e-17       2.409063182754e-10       2.412445748430e-11      -2.047685077216e-14 
   25       1.317493529185e-10       1.539889198229e-15       2.222148019635e-13       2.820539232439e-17       2.236724284990e-10       2.248222816412e-11      -9.446593991516e-15 
   26       1.337421072407e-10       1.758166599112e-15       2.272228572063e-13       3.048805174637e-17       2.081226739214e-10       2.102535243625e-11      -2.330849970447e-15 
   27       1.357779597913e-10       2.009397397769e-15       2.329724523580e-13       3.285973247259e-17       1.940706793500e-10       1.972099884415e-11       6.625777142484e-16 
   28       1.378209651151e-10       2.287173181923e-15       2.392797586894e-13       3.532039013127e-17       1.812743873844e-10       1.851843506415e-11      -9.522066947672e-17 
   29       1.398808801659e-10       2.591009515051e-15       2.458407701097e-13       3.787003966533e-17       1.696684637892e-10       1.741312771430e-11      -3.801323421529e-15 
   30       1.419720995163e-10       2.922148804821e-15       2.522195541727e-13       4.050873556519e-17       1.591281984820e-10       1.640617192482e-11      -9.226699447817e-15 
   31       1.440986327392e-10       3.281213954202e-15       2.579020451853e-13       4.323657178123e-17       1.494385016644e-10       1.548935788767e-11      -1.492838454149e-14 
   32       1.462633586526e-10       3.666092746719e-15       2.625160506904e-13       4.605370534454e-17       1.405494074999e-10       1.465344504007e-11      -2.002851264304e-14 
   33       1.484595069859e-10       4.073160187734e-15       2.656829392502e-13       4.896035004900e-17       1.323981865020e-10       1.388106894989e-11      -2.369989149056e-14 
   34       1.506741309919e-10       4.499267453888e-15       2.670351971735e-13       5.195677019084e-17       1.248709006764e-10       1.315094314652e-11      -2.518425457224e-14 
   35       1.529138479501e-10       4.947006532436e-15       2.664913169043e-13       5.504326205718e-17       1.179290658774e-10       1.246360495642e-11      -2.459112259604e-14 
   36       1.551864486404e-10       5.421353606569e-15       2.640789884905e-13       5.822017390213e-17       1.115170012892e-10       1.182381114029e-11      -2.238947633149e-14 
   37       1.574943398037e-10       5.927475479958e-15       2.598702080601e-13       6.148789087973e-17       1.055512673155e-10       1.123340255514e-11      -1.915210284359e-14 
   38       1.598379950398e-10       6.467697307154e-15       2.539964530949e-13       6.484675111075e-17       1.000164765077e-10       1.069119169660e-11      -1.535844022478e-14 
   39       1.622124127864e-10       7.043579204215e-15       2.466441334365e-13       6.829710721983e-17       9.489509788991e-11       1.019248981211e-11      -1.154176505287e-14 
   40       1.646053035591e-10       7.656729497583e-15       2.380549198551e-13       7.183935189971e-17       9.013831262584e-11       9.728723143668e-12      -8.351228228679e-15 
   41       1.670027268342e-10       8.308509067840e-15       2.284572268248e-13       7.547387931482e-17       8.568303067190e-11       9.290165522322e-12      -6.389345769497e-15 
   42       1.694098772399e-10       8.999026402955e-15       2.178256422677e-13       7.920094842122e-17       8.151616454990e-11       8.875982848229e-12      -5.643614913808e-15 
   43       1.718358966620e-10       9.727816958011e-15       2.060489205455e-13       8.302077919963e-17       7.762668468086e-11       8.486914507224e-12      -5.881934698325e-15 
   44       1.742878731024e-10       1.049409239124e-14       1.929936400842e-13       8.693358940912e-17       7.398633209793e-11       8.122388817103e-12      -6.801898443890e-15 
   45       1.767705012447e-10       1.129702405758e-14       1.785143270840e-13       9.093955729347e-17       7.055971954562e-11       7.780946134938e-12      -8.071959094467e-15 
   46       1.792855545473e-10       1.213674043525e-14       1.624910819603e-13       9.503869743199e-17       6.734146852503e-11       7.461925466628e-12      -9.480250299905e-15 
   47       1.818318139856e-10       1.301359477282e-14       1.448005697572e-13       9.923094703174e-17       6.432784128035e-11       7.164089752535e-12      -1.082256973070e-14 
   48       1.844048771238e-10       1.392788604551e-14       1.253044733300e-13       1.035161970710e-16       6.150553916947e-11       6.885053409667e-12      -1.185871804960e-14 
   49       1.869968940549e-10       1.487985693415e-14       1.038486182185e-13       1.078942897410e-16       5.885099160265e-11       6.621200141752e-12      -1.231061078455e-14 
   50       1.895997815039e-10       1.586970257378e-14       8.030554452922e-14       1.123650123675e-16       5.633745767351e-11       6.368729984386e-12      -1.195049987321e-14 
   51       1.922165062699e-10       1.689760428833e-14       5.471787588047e-14       1.169280831677e-16       5.396025323614e-11       6.127326175568e-12      -1.089824964530e-14 
   52       1.948524081029e-10       1.796370151918e-14       2.719235362666e-14       1.215831572049e-16       5.171714231983e-11       5.897341545391e-12      -9.401489301930e-15 
   53       1.975118912274e-10       1.906808037729e-14      -2.139067179870e-15       1.263298269105e-16       4.960078766409e-11       5.678727913295e-12      -7.754852323161e-15 
   54       2.001983239607e-10       2.021077212884e-14      -3.311804835047e-14       1.311676193603e-16       4.759840731346e-11       5.471007038614e-12      -6.302328796138e-15 
   55       2.029140804724e-10       2.139176892274e-14      -6.559836973891e-14       1.360960486149e-16       4.569567636354e-11       5.273495751029e-12      -5.356713398603e-15 
   56       2.056609081743e-10       2.261107901750e-14      -9.957531219791e-14       1.411147942085e-16       4.389035396267e-11       5.086113384089e-12      -4.929127065753e-15 
   57       2.084394757717e-10       2.386868262139e-14      -1.350863677633e-13       1.462235622293e-16       4.218144004876e-11       4.908724043113e-12      -4.936422986214e-15 
   58       2.112491463385e-10       2.516451502850e-14      -1.721747530621e-13       1.514220335731e-16       4.056505265690e-11       4.740881269594e-12      -5.277345330422e-15 
   59       2.140878824736e-10       2.649846577613e-14      -2.108897854826e-13       1.567098633652e-16       3.903424990959e-11       4.581808894864e-12      -5.831651539331e-15 
   60       2.169521514570e-10       2.787037780226e-14      -2.512872593442e-13       1.620866803812e-16       3.757885200705e-11       4.430381893748e-12      -6.459234613124e-15 
   61       2.198384151469e-10       2.927999090203e-14      -2.934179979284e-13       1.675521654820e-16       3.618826912224e-11       4.285430702124e-12      -7.029069708987e-15 
   62       2.227482050280e-10       3.072675917234e-14      -3.372896558176e-13       1.731063088013e-16       3.486112953934e-11       4.146777305251e-12      -7.515632126593e-15 
   63       2.256840231940e-10       3.220999090910e-14      -3.828969711823e-13       1.787492095223e-16       3.359750660826e-11       4.014398793447e-12      -7.922662352653e-15 
   64       2.286478144495e-10       3.372889813413e-14      -4.302328343240e-13       1.844810038483e-16       3.239602254491e-11       3.888115712702e-12      -8.255318720606e-15 
   65       2.316409217478e-10       3.528259398517e-14      -4.792882886741e-13       1.903018669314e-16       3.125376579670e-11       3.767583181603e-12      -8.520246002094e-15 
   66       2.346640416306e-10       3.687009010602e-14      -5.300525317934e-13       1.962120148003e-16       3.016620840780e-11       3.652282008258e-12      -8.725643998454e-15 
   67       2.377171796661e-10       3.849029403661e-14      -5.825129163707e-13       2.022117062889e-16       2.912712338458e-11       3.541509807221e-12      -8.881336132192e-15 
   68       2.408001159829e-10       4.014212736635e-14      -6.366548731376e-13       2.083012330596e-16       2.813024841515e-11       3.434578335752e-12      -8.997749503058e-15 
   69       2.439140110169e-10       4.182491382891e-14      -6.924616592416e-13       2.144808830152e-16       2.717485320423e-11       3.331471790940e-12      -9.082461747287e-15 
   70       2.470600465741e-10       4.353806551841e-14      -7.499145604475e-13       2.207509729031e-16       2.626115696159e-11       3.232306555836e-12      -9.143074486974e-15 
   71       2.502389135735e-10       4.528096955411e-14      -8.089929637296e-13       2.271118611596e-16       2.538864457061e-11       3.137133238041e-12      -9.188279977689e-15 
   72       2.534507805320e-10       4.705298855905e-14      -8.696743562743e-13       2.335639495334e-16       2.455602861740e-11       3.045933060773e-12      -9.227901860173e-15 
   73       2.566952620488e-10       4.885346113873e-14      -9.319343244817e-13       2.401076847096e-16       2.376121141998e-11       2.958614253953e-12      -9.272935912051e-15 
   74       2.599713872903e-10       5.068170235979e-14      -9.957465529677e-13       2.467435599336e-16       2.300124705742e-11       2.875008445275e-12      -9.335590799527e-15 
   75       2.632775684745e-10       5.253700422862e-14      -1.061082823566e-12       2.534721166348e-16       2.227230339903e-11       2.794867051285e-12      -9.429328829090e-15 
   76       2.666122462753e-10       5.441847641913e-14      -1.127910138173e-12       2.602938468082e-16       2.157061376166e-11       2.717927227686e-12      -9.564967182869e-15 
   77       2.699760315751e-10       5.632453386699e-14      -1.196181483775e-12       2.672088760168e-16       2.089561616610e-11       2.644131582145e-12      -9.738070749423e-15 
   78       2.733698988283e-10       5.825331617119e-14      -1.265843373741e-12       2.742172252649e-16       2.024732021351e-11       2.573442156639e-12      -9.939323671394e-15 
   79       2.767945264412e-10       6.020283630372e-14      -1.336838515578e-12       2.813189047075e-16       1.962535085062e-11       2.505772275359e-12      -1.015822552677e-14 
   80       2.802502791369e-10       6.217097781235e-14      -1.409105750952e-12       2.885139132396e-16       1.902893069201e-11       2.440984362159e-12      -1.038305129761e-14 
   81       2.837371903208e-10       6.415549202347e-14      -1.482579995716e-12       2.958022380845e-16       1.845686234238e-11       2.378887757999e-12      -1.060081133877e-14 
   82       2.872549444465e-10       6.615399524496e-14      -1.557192179929e-12       3.031838543832e-16       1.790751071887e-11       2.319236538392e-12      -1.079721134666e-14 
   83       2.908028593807e-10       6.816396596902e-14      -1.632869187884e-12       3.106587247825e-16       1.737878537331e-11       2.261727330843e-12      -1.095661232794e-14 
   84       2.943802525168e-10       7.018299395226e-14      -1.709542196187e-12       3.182268143862e-16       1.686864881388e-11       2.206070767769e-12      -1.106527573797e-14 
   85       2.979876474796e-10       7.220958102709e-14      -1.787173407571e-12       3.258881393545e-16       1.637677701576e-11       2.152224236153e-12      -1.112180470541e-14 
   86       3.016257360646e-10       7.424246853670e-14      -1.865733659629e-12       3.336427256450e-16       1.590314305665e-11       2.100193890642e-12      -1.112836839409e-14 
   87       3.052950012562e-10       7.628039867636e-14      -1.945194500771e-12       3.414905942160e-16       1.544750688565e-11       2.049963517670e-12      -1.108758569100e-14 
   88       3.089957060432e-10       7.832211592947e-14      -2.025528271394e-12       3.494317608740e-16       1.500940648580e-11       2.001493590470e-12      -1.100254038790e-14 
   89       3.127278822329e-10       8.036636850364e-14      -2.106708185048e-12       3.574662361201e-16       1.458814903677e-11       1.954720324091e-12      -1.087679636305e-14 
   90       3.164913192670e-10       8.241190976676e-14      -2.188708409608e-12       3.655940249979e-16       1.418280207742e-11       1.909554730413e-12      -1.071441276282e-14 
   91       3.202855530359e-10       8.445749968307e-14      -2.271504148436e-12       3.738151269395e-16       1.379218466845e-11       1.865881673166e-12      -1.051995918341e-14 
   92       3.241098546941e-10       8.650190624923e-14      -2.355071721553e-12       3.821295356130e-16       1.341485855497e-11       1.823558922939e-12      -1.029853085246e-14 
   93       3.279634888249e-10       8.854379703963e-14      -2.439380559549e-12       3.905373562742e-16       1.304946959624e-11       1.782452975133e-12      -1.005527695990e-14 
   94       3.318465566448e-10       9.058139206424e-14      -2.524367631607e-12       3.990391783433e-16       1.269584999043e-11       1.742554718576e-12      -9.793871527757e-15 
   95       3.357592595272e-10       9.261276111277e-14      -2.609959303631e-12       4.076357588417e-16       1.235406625645e-11       1.703879497238e-12      -9.517839558336e-15 
   96       3.397016335650e-10       9.463592892197e-14      -2.696079053364e-12       4.163279113202e-16       1.202407976238e-11       1.666431462926e-12      -9.231031778106e-15 
   97       3.436735420830e-10       9.664887510327e-14      -2.782647440549e-12       4.251165073193e-16       1.170574269615e-11       1.630203134938e-12      -8.937633136468e-15 
   98       3.476746681498e-10       9.864953407041e-14      -2.869582077079e-12       4.340024778289e-16       1.139879403620e-11       1.595174959713e-12      -8.642171304490e-15 
   99       3.517045070905e-10       1.006357949670e-13      -2.956797597157e-12       4.429868147485e-16       1.110285552215e-11       1.561314870494e-12      -8.349525173654e-15 
  100       3.557623589990e-10       1.026055015942e-13      -3.044205627450e-12       4.520705723470e-16       1.081742762551e-11       1.528577846972e-12      -8.064933354599e-15 
  101       3.598473212499e-10       1.045564523384e-13      -3.131714757243e-12       4.612548687227e-16       1.054188552031e-11       1.496905474948e-12      -7.794002675865e-15 
  102       3.639582810114e-10       1.064864000984e-13      -3.219230508595e-12       4.705408872633e-16       1.027547505378e-11       1.466225505986e-12      -7.542716682640e-15 
  103       3.680939077571e-10       1.083930522140e-13      -3.306655306495e-12       4.799298781057e-16       1.001730871704e-11       1.436451417064e-12      -7.317444135501e-15 
  104       3.722529370053e-10       1.102741789791e-13      -3.393894992837e-12       4.894230276308e-16       9.766566953755e-12       1.407502028755e-12      -7.123471284680e-15 
  105       3.764350813150e-10       1.121279560367e-13      -3.480879434773e-12       4.990210437255e-16       9.523141735392e-12       1.379364326380e-12      -6.960354583920e-15 
  106       3.806402289658e-10       1.139526683172e-13      -3.567544657569e-12       5.087245169562e-16       9.287072816499e-12       1.352038343653e-12      -6.825953117587e-15 
  107       3.848681594849e-10       1.157466066894e-13      -3.653826590940e-12       5.185340475415e-16       9.058348408634e-12       1.325517644693e-12      -6.717841134894e-15 
