# dimensionless total lensed [l(l+1)/2pi] C_l's
# for l=2 to 2500, i.e. number of multipoles equal to 2499
#
# -> if you prefer output in CAMB/HealPix/LensPix units/order, set 'format' to 'camb' in input file
# -> if you don't want to see such a header, set 'headers' to 'no' in input file
# -> for CMB lensing (phi), these are C_l^phi-phi for the lensing potential.
#    Remember the conversion factors:
#    C_l^dd (deflection) = l(l+1) C_l^phi-phi
#    C_l^gg (shear/convergence) = 1/4 (l(l+1))^2 C_l^phi-phi
#
# 1:l     2:TT                     3:EE                     4:TE                     5:BB                     6:phiphi                 7:TPhi                   8:Ephi               
    2       1.494046404168e-10       7.312153471050e-15       4.828519288722e-13       2.491834691949e-19       8.739407862315e-09       4.832928053804e-10      -2.513904673463e-12 
    3       1.408586501092e-10       1.237439602627e-14       6.075723324550e-13       4.985958847110e-19       5.369948245302e-09       3.444679843962e-10      -2.211495001077e-12 
    4       1.324265307748e-10       1.443813536202e-14       6.285761546479e-13       8.314938453286e-19       3.736280383560e-09       2.620027841094e-10      -1.763530897961e-12 
    5       1.257481777735e-10       1.334161133053e-14       5.885715949158e-13       1.248160476391e-18       2.788898998190e-09       2.077394958910e-10      -1.308206164630e-12 
    6       1.208282901182e-10       1.028398221763e-14       5.176951004354e-13       1.748931371396e-18       2.177973418058e-09       1.695720078244e-10      -8.930798993366e-13 
    7       1.173909592548e-10       6.808651146286e-15       4.364942218115e-13       2.334183463882e-18       1.756311624051e-09       1.414628980206e-10      -5.423590747126e-13 
    8       1.150834496626e-10       4.020768895991e-15       3.573917387562e-13       3.004322696882e-18       1.450252588732e-09       1.199955625522e-10      -2.668634090826e-13 
    9       1.136737838763e-10       2.326670538535e-15       2.877175548943e-13       3.759770977680e-18       1.219733183930e-09       1.031163220076e-10      -6.820971592903e-14 
   10       1.129544656380e-10       1.570898225244e-15       2.314980839161e-13       4.600952932466e-18       1.041604757592e-09       8.960573148018e-11       5.898870791766e-14 
   11       1.127750978280e-10       1.349883788563e-15       1.904024801878e-13       5.528282981330e-18       8.760381541678e-10       7.896437617945e-11       1.243910755819e-13 
   12       1.130571694514e-10       1.293767437361e-15       1.640880244951e-13       6.542153238825e-18       7.651681136308e-10       6.988562000299e-11       1.428491455618e-13 
   13       1.136472922597e-10       1.206215197191e-15       1.507248463002e-13       7.642922709489e-18       6.741992600572e-10       6.241153642065e-11       1.280390682309e-13 
   14       1.144546067977e-10       1.060577792353e-15       1.477054189470e-13       8.830908192886e-18       5.985413757057e-10       5.593491062493e-11       9.294272289489e-14 
   15       1.154902665933e-10       9.172835648124e-16       1.520087405037e-13       1.010637724100e-17       5.348842329415e-10       5.051928538160e-11       4.972073554544e-14 
   16       1.167372494339e-10       8.375445018025e-16       1.605512371789e-13       1.146954342523e-17       4.807818632264e-10       4.595366948171e-11       7.458813877323e-15 
   17       1.180688192391e-10       8.383516158764e-16       1.708936081731e-13       1.292056407410e-17       4.343875800276e-10       4.202486934212e-11      -2.752949827060e-14 
   18       1.195252542074e-10       8.919187344094e-16       1.812540740551e-13       1.445953933056e-17       3.941316316546e-10       3.850268876221e-11      -5.176357233539e-14 
   19       1.211146217005e-10       9.657931594939e-16       1.906703817063e-13       1.608652095160e-17       3.593734659132e-10       3.537204365046e-11      -6.436686296844e-14 
   20       1.227597782514e-10       1.026973022070e-15       1.983926242688e-13       1.780150417081e-17       3.287683089111e-10       3.261703232134e-11      -6.615556086317e-14 
   21       1.244760367796e-10       1.078854376123e-15       2.045037464326e-13       1.960445258636e-17       3.018332138053e-10       3.019770850615e-11      -5.929098849220e-14 
   22       1.262736140370e-10       1.139912509432e-15       2.094666541598e-13       2.149528843657e-17       2.779221397376e-10       2.802422885974e-11      -4.716032735209e-14 
   23       1.281371335244e-10       1.229126483970e-15       2.137573822895e-13       2.347392217605e-17       2.567050298864e-10       2.605492089282e-11      -3.274169979121e-14 
   24       1.300258876293e-10       1.364353543920e-15       2.179130911847e-13       2.554024270556e-17       2.376899365243e-10       2.424567116530e-11      -1.916134975900e-14 
   25       1.319592304135e-10       1.545527850192e-15       2.223479973222e-13       2.769415184565e-17       2.206522309327e-10       2.260733518991e-11      -8.269319198794e-15 
   26       1.339556723001e-10       1.765315879720e-15       2.274056173487e-13       2.993555238282e-17       2.052825652763e-10       2.114895163491e-11      -1.390316716953e-15 
   27       1.359988467449e-10       2.017552103674e-15       2.331273647987e-13       3.226437827293e-17       1.913958477484e-10       1.984530100014e-11       1.345000248059e-15 
   28       1.380541166035e-10       2.296260456539e-15       2.393887775957e-13       3.468058700866e-17       1.787519515674e-10       1.865237763905e-11       4.001012601642e-16 
   29       1.401299423635e-10       2.601069858514e-15       2.459027498167e-13       3.718419438692e-17       1.672859670243e-10       1.756155610607e-11      -3.407795705357e-15 
   30       1.422380915878e-10       2.933247180521e-15       2.522386280896e-13       3.977525508661e-17       1.568744478187e-10       1.656492487681e-11      -8.863702634023e-15 
   31       1.443798979413e-10       3.293427610903e-15       2.578831236150e-13       4.245386257151e-17       1.473045983410e-10       1.564606406291e-11      -1.454389233035e-14 
   32       1.465582368594e-10       3.679432084191e-15       2.624402002827e-13       4.522017225906e-17       1.385267936249e-10       1.480000296015e-11      -1.958536973462e-14 
   33       1.487673125450e-10       4.087529460087e-15       2.654945953583e-13       4.807439533679e-17       1.304787698062e-10       1.401900302827e-11      -2.317824430116e-14 
   34       1.509952037169e-10       4.514520580741e-15       2.666517603020e-13       5.101679259810e-17       1.230476670906e-10       1.329077137500e-11      -2.458448495107e-14 
   35       1.532487461803e-10       4.963278774130e-15       2.658744268280e-13       5.404765617536e-17       1.161953463792e-10       1.261323864311e-11      -2.392850602928e-14 
   36       1.555357079028e-10       5.439221061566e-15       2.632669535406e-13       5.716732921437e-17       1.098667395073e-10       1.198400534258e-11      -2.169461709254e-14 
   37       1.578584080073e-10       5.947903858736e-15       2.589718345258e-13       6.037619105362e-17       1.039793602893e-10       1.139796376553e-11      -1.846905242341e-14 
   38       1.602170034292e-10       6.491495614056e-15       2.531041056395e-13       6.367457463769e-17       9.851793052517e-11       1.085402974355e-11      -1.472679003177e-14 
   39       1.626060497833e-10       7.071181855996e-15       2.458006606635e-13       6.706282705146e-17       9.346505356919e-11       1.035006206289e-11      -1.098932545644e-14 
   40       1.650127254335e-10       7.688103230351e-15       2.372411516991e-13       7.054133466234e-17       8.877243127282e-11       9.880702923186e-12      -7.890713115553e-15 
   41       1.674227035594e-10       8.343182108508e-15       2.275958802009e-13       7.411048516445e-17       8.437767749139e-11       9.439257553865e-12      -6.017671482463e-15 
   42       1.698417491436e-10       9.036546795420e-15       2.168428410836e-13       7.777053318564e-17       8.026782014673e-11       9.024739970086e-12      -5.350600440303e-15 
   43       1.722799750008e-10       9.767911291607e-15       2.048954805974e-13       8.152169489747e-17       7.643193498463e-11       8.636651030040e-12      -5.652286772097e-15 
   44       1.747456336199e-10       1.053671103400e-14       1.916511067946e-13       8.536418414437e-17       7.284209192578e-11       8.272889311535e-12      -6.614597211093e-15 
   45       1.772444216468e-10       1.134234029202e-14       1.769937135206e-13       8.929817582270e-17       6.946332672193e-11       7.930561747770e-12      -7.901525356743e-15 
   46       1.797777308669e-10       1.218498827171e-14       1.608062399405e-13       9.332368398958e-17       6.629030090118e-11       7.609012600782e-12      -9.304390454941e-15 
   47       1.823434517026e-10       1.306502461763e-14       1.429599688203e-13       9.744064657185e-17       6.331929898798e-11       7.307477652033e-12      -1.062530481557e-14 
   48       1.849361077932e-10       1.398276506240e-14       1.233099158694e-13       1.016489559331e-16       6.053717136366e-11       7.024146919124e-12      -1.163185168366e-14 
   49       1.875465817933e-10       1.493846938875e-14       1.016938802902e-13       1.059484563537e-16       5.792063279616e-11       6.756088138491e-12      -1.205528060996e-14 
   50       1.901656955915e-10       1.593233882163e-14       7.797670762272e-14       1.103389381650e-16       5.544327185632e-11       6.500136332555e-12      -1.167664306274e-14 
   51       1.927967327885e-10       1.696451209835e-14       5.219944511693e-14       1.148201241198e-16       5.310044959079e-11       6.256024692849e-12      -1.061694939924e-14 
   52       1.954458413282e-10       1.803506480894e-14       2.446903171581e-14       1.193916749667e-16       5.088994677812e-11       6.023971274861e-12      -9.122652311583e-15 
   53       1.981183855433e-10       1.914400785697e-14      -5.082225452696e-15       1.240531898587e-16       4.880451316499e-11       5.803756872674e-12      -7.486868621526e-15 
   54       2.008188533372e-10       2.029128539478e-14      -3.629547288925e-14       1.288042036765e-16       4.683152886118e-11       5.594693964448e-12      -6.051713015315e-15 
   55       2.035506061331e-10       2.147680996162e-14      -6.902349257029e-14       1.336442386244e-16       4.495685318186e-11       5.395894274512e-12      -5.127930654358e-15 
   56       2.063152686172e-10       2.270058285050e-14      -1.032590540536e-13       1.385729801641e-16       4.317826655070e-11       5.207220438929e-12      -4.725069028613e-15 
   57       2.091130248173e-10       2.396260002641e-14      -1.390363841053e-13       1.435901400972e-16       4.149477476085e-11       5.028516359664e-12      -4.758362718806e-15 
   58       2.119426652623e-10       2.526281694117e-14      -1.763949478604e-13       1.486954055700e-16       3.990254245427e-11       4.859310303743e-12      -5.124692612650e-15 
   59       2.148014880393e-10       2.660114791815e-14      -2.153798041440e-13       1.538884385110e-16       3.839471766406e-11       4.698795483147e-12      -5.701697518004e-15 
   60       2.176851998489e-10       2.797746553690e-14      -2.560419607932e-13       1.591688750679e-16       3.696125635676e-11       4.545810634714e-12      -6.346885776016e-15 
   61       2.205895881807e-10       2.939153952852e-14      -2.984281705937e-13       1.645364027672e-16       3.559171077706e-11       4.399156838177e-12      -6.927210037608e-15 
   62       2.235162002809e-10       3.084283882634e-14      -3.425468387733e-13       1.699910135046e-16       3.428472278797e-11       4.258675004087e-12      -7.417558704542e-15 
   63       2.264677691135e-10       3.233068378928e-14      -3.883950587779e-13       1.755328066007e-16       3.304035975756e-11       4.124376878976e-12      -7.822896101851e-15 
   64       2.294465128232e-10       3.385430028596e-14      -4.359685162693e-13       1.811619179556e-16       3.185725898388e-11       3.996121570681e-12      -8.149826756620e-15 
   65       2.324540919874e-10       3.541281716012e-14      -4.852615094051e-13       1.868785219517e-16       3.073254627644e-11       3.873606796819e-12      -8.406673584267e-15 
   66       2.354915668693e-10       3.700526369600e-14      -5.362669691194e-13       1.926828333576e-16       2.966175453778e-11       3.756360133276e-12      -8.603556074835e-15 
   67       2.385593546701e-10       3.863056708370e-14      -5.889764794028e-13       1.985751092311e-16       2.863874234493e-11       3.643730262683e-12      -8.752468479271e-15 
   68       2.416576104984e-10       4.028766114281e-14      -6.433792124143e-13       2.045556389275e-16       2.765733381494e-11       3.535072584715e-12      -8.865751386183e-15 
   69       2.447875554725e-10       4.197584374085e-14      -6.994584379255e-13       2.106247075194e-16       2.671680604610e-11       3.430369282217e-12      -8.950972053762e-15 
   70       2.479503421698e-10       4.369448757667e-14      -7.571943397804e-13       2.167826283497e-16       2.581737242188e-11       3.329719752470e-12      -9.015142389162e-15 
   71       2.511466233812e-10       4.544293563541e-14      -8.165650311443e-13       2.230297558418e-16       2.495852298195e-11       3.233153649254e-12      -9.066270202615e-15 
   72       2.543765202007e-10       4.722050149940e-14      -8.775465470301e-13       2.293664870980e-16       2.413898702633e-11       3.140627102217e-12      -9.113396303948e-15 
   73       2.576395901143e-10       4.902646965900e-14      -9.401128368251e-13       2.357932634991e-16       2.335669571954e-11       3.052018936252e-12      -9.166631599119e-15 
   74       2.609347950892e-10       5.086009582348e-14      -1.004235756817e-12       2.423105723035e-16       2.260874469470e-11       2.967126890863e-12      -9.237194186741e-15 
   75       2.642604696634e-10       5.272060723188e-14      -1.069885062722e-12       2.489189482460e-16       2.189135665768e-11       2.885663839544e-12      -9.337446454609e-15 
   76       2.676149764484e-10       5.460706004718e-14      -1.137025954217e-12       2.556188773918e-16       2.120081894638e-11       2.807333698458e-12      -9.477265882409e-15 
   77       2.709988811799e-10       5.651788082943e-14      -1.205611208134e-12       2.624104849223e-16       2.053657625411e-11       2.732083490438e-12      -9.652311405442e-15 
   78       2.744131181653e-10       5.845124162436e-14      -1.275587590471e-12       2.692937930560e-16       1.989863655870e-11       2.659890590987e-12      -9.853674821650e-15 
   79       2.778583205302e-10       6.040519288488e-14      -1.346898120387e-12       2.762688133446e-16       1.928662907757e-11       2.590685004911e-12      -1.007131979782e-14 
   80       2.813348024031e-10       6.237766085135e-14      -1.419482012522e-12       2.833355462675e-16       1.869978686408e-11       2.524347219776e-12      -1.029404378579e-14 
   81       2.848425411011e-10       6.436644493179e-14      -1.493274619332e-12       2.904939808268e-16       1.813692940388e-11       2.460706059383e-12      -1.050943993865e-14 
   82       2.883811593147e-10       6.636921508215e-14      -1.568207373416e-12       2.977440941419e-16       1.759644521135e-11       2.399536537228e-12      -1.070385902695e-14 
   83       2.919499072932e-10       6.838350918655e-14      -1.644207729842e-12       3.050858510440e-16       1.707627442593e-11       2.340557709971e-12      -1.086237135491e-14 
   84       2.955480427733e-10       7.040696595024e-14      -1.721207219797e-12       3.125192189681e-16       1.657440944771e-11       2.283499319875e-12      -1.097183815819e-14 
   85       2.991760821553e-10       7.243807367752e-14      -1.799167271882e-12       3.200442163503e-16       1.609053032573e-11       2.228319117859e-12      -1.103079424717e-14 
   86       3.028347250473e-10       7.447554139932e-14      -1.878057585604e-12       3.276608715480e-16       1.562460983423e-11       2.175017799949e-12      -1.104114148925e-14 
   87       3.065244639976e-10       7.651807571587e-14      -1.957848478148e-12       3.353692081102e-16       1.517641096965e-11       2.123572445748e-12      -1.100519896121e-14 
   88       3.102455733643e-10       7.856438213513e-14      -2.038510963033e-12       3.431692446300e-16       1.474547825348e-11       2.073935528021e-12      -1.092571712562e-14 
   89       3.139980981860e-10       8.061316641128e-14      -2.120016828759e-12       3.510609945958e-16       1.433112903517e-11       2.026033922278e-12      -1.080589200720e-14 
   90       3.177818430509e-10       8.266313588310e-14      -2.202338717467e-12       3.590444662436e-16       1.393244479512e-11       1.979767916357e-12      -1.064937936927e-14 
   91       3.215963609675e-10       8.471300081244e-14      -2.285450203588e-12       3.671196624084e-16       1.354826244753e-11       1.935010220005e-12      -1.046030889009e-14 
   92       3.254409422340e-10       8.676147572267e-14      -2.369325872496e-12       3.752865803765e-16       1.317716564332e-11       1.891604974465e-12      -1.024329833931e-14 
   93       3.293148691684e-10       8.880718065587e-14      -2.453933642323e-12       3.835453273770e-16       1.281782085749e-11       1.849406603132e-12      -1.000309545395e-14 
   94       3.332182482979e-10       9.084832504933e-14      -2.539210237574e-12       3.918964872486e-16       1.247006236294e-11       1.808405198733e-12      -9.743411161959e-15 
   95       3.371512833348e-10       9.288297856750e-14      -2.625082155001e-12       4.003408089020e-16       1.213395511600e-11       1.768618250953e-12      -9.467936269583e-15 
   96       3.411140130883e-10       9.490916691192e-14      -2.711473064312e-12       4.088790970141e-16       1.180946060058e-11       1.730052048088e-12      -9.180707070297e-15 
   97       3.451063039839e-10       9.692487178592e-14      -2.798303780350e-12       4.175122134666e-16       1.149643286387e-11       1.692701233524e-12      -8.886114410678e-15 
   98       3.491278425829e-10       9.892803085921e-14      -2.885492235270e-12       4.262410787857e-16       1.119461455205e-11       1.656548362206e-12      -8.588912756298e-15 
   99       3.531781281017e-10       1.009165377326e-13      -2.972953450712e-12       4.350666735810e-16       1.090363294602e-11       1.621563457117e-12      -8.294229257618e-15 
  100       3.572564649310e-10       1.028882419025e-13      -3.060599509982e-12       4.439900399850e-16       1.062299599710e-11       1.587703565753e-12      -8.007572815880e-15 
  101       3.613619551555e-10       1.048409487257e-13      -3.148339530222e-12       4.530122830920e-16       1.035208836277e-11       1.554912316600e-12      -7.734843148997e-15 
  102       3.654934910727e-10       1.067724193840e-13      -3.236079634594e-12       4.621345723974e-16       1.009016744235e-11       1.523119475605e-12      -7.482339857446e-15 
  103       3.696497477131e-10       1.086803708488e-13      -3.323722924449e-12       4.713581432371e-16       9.836359412776e-12       1.492240502653e-12      -7.256771490162e-15 
  104       3.738294638171e-10       1.105625810927e-13      -3.411175770837e-12       4.806841679729e-16       9.589857357198e-12       1.462196258183e-12      -7.063705796019e-15 
  105       3.780323441076e-10       1.124172209870e-13      -3.498367716870e-12       4.901133466327e-16       9.350554670846e-12       1.432976110104e-12      -6.902662528909e-15 
  106       3.822582655228e-10       1.142425673818e-13      -3.585234224524e-12       4.996462633973e-16       9.118490226856e-12       1.404582564526e-12      -6.771371567624e-15 
  107       3.865069953832e-10       1.160369029698e-13      -3.671710636503e-12       5.092835119238e-16       8.893652201603e-12       1.377011657468e-12      -6.667264568418e-15 
