# dimensionless total [l(l+1)/2pi] C_l's
# for l=2 to 3000, i.e. number of multipoles equal to 2999
#
# -> if you prefer output in CAMB/HealPix/LensPix units/order, set 'format' to 'camb' in input file
# -> if you don't want to see such a header, set 'headers' to 'no' in input file
# -> for CMB lensing (phi), these are C_l^phi-phi for the lensing potential.
#    Remember the conversion factors:
#    C_l^dd (deflection) = l(l+1) C_l^phi-phi
#    C_l^gg (shear/convergence) = 1/4 (l(l+1))^2 C_l^phi-phi
#
# 1:l     2:TT                     3:EE                     4:TE                     5:BB                     6:phiphi                 7:TPhi                   8:Ephi               
    2       1.494041559344e-10       7.311904287549e-15       4.828519340019e-13       0.000000000000e+00       8.739407862315e-09       4.832928053804e-10      -2.513904673463e-12 
    3       1.408576833043e-10       1.237389743008e-14       6.075723552720e-13       0.000000000000e+00       5.369948245302e-09       3.444679843962e-10      -2.211495001077e-12 
    4       1.324249241791e-10       1.443730386665e-14       6.285762200430e-13       0.000000000000e+00       3.736280383560e-09       2.620027841094e-10      -1.763530897961e-12 
    5       1.257457766497e-10       1.334036316483e-14       5.885717434220e-13       0.000000000000e+00       2.788898998190e-09       2.077394958910e-10      -1.308206164630e-12 
    6       1.208249430191e-10       1.028223327208e-14       5.176953913491e-13       0.000000000000e+00       2.177973418058e-09       1.695720078244e-10      -8.930798993366e-13 
    7       1.173865185062e-10       6.806316930049e-15       4.364947358432e-13       0.000000000000e+00       1.756311624051e-09       1.414628980206e-10      -5.423590747126e-13 
    8       1.150777717595e-10       4.017764506067e-15       3.573925801609e-13       0.000000000000e+00       1.450252588732e-09       1.199955625522e-10      -2.668634090826e-13 
    9       1.136667297880e-10       2.322910641976e-15       2.877188530530e-13       0.000000000000e+00       1.219733183930e-09       1.031163220076e-10      -6.820971592903e-14 
   10       1.129459010168e-10       1.566297054900e-15       2.314999943645e-13       0.000000000000e+00       1.041604757592e-09       8.960573148018e-11       5.898870791766e-14 
   11       1.127648931216e-10       1.344355152437e-15       1.904051851108e-13       0.000000000000e+00       8.760381541678e-10       7.896437617945e-11       1.243910755819e-13 
   12       1.130451999224e-10       1.287224741189e-15       1.640917327244e-13       0.000000000000e+00       7.651681136308e-10       6.988562000299e-11       1.428491455618e-13 
   13       1.136334379171e-10       1.198571479427e-15       1.507297928725e-13       0.000000000000e+00       6.741992600572e-10       6.241153642065e-11       1.280390682309e-13 
   14       1.144387522483e-10       1.051745770366e-15       1.477118642960e-13       0.000000000000e+00       5.985413757057e-10       5.593491062493e-11       9.294272289489e-14 
   15       1.154723008245e-10       9.071756907386e-16       1.520169693685e-13       0.000000000000e+00       5.348842329415e-10       5.051928538160e-11       4.972073554544e-14 
   16       1.167170655403e-10       8.260730262061e-16       1.605615573201e-13       0.000000000000e+00       4.807818632264e-10       4.595366948171e-11       7.458813877323e-15 
   17       1.180463141059e-10       8.254286571637e-16       1.709063489889e-13       0.000000000000e+00       4.343875800276e-10       4.202486934212e-11      -2.752949827060e-14 
   18       1.195003281597e-10       8.774563527348e-16       1.812695851407e-13       0.000000000000e+00       3.941316316546e-10       3.850268876221e-11      -5.176357233539e-14 
   19       1.210871781717e-10       9.497034272154e-16       1.906890317172e-13       0.000000000000e+00       3.593734659132e-10       3.537204365046e-11      -6.436686296844e-14 
   20       1.227297233829e-10       1.009168103708e-15       1.984147994209e-13       0.000000000000e+00       3.287683089111e-10       3.261703232134e-11      -6.615556086317e-14 
   21       1.244432791332e-10       1.059246590878e-15       2.045298498517e-13       0.000000000000e+00       3.018332138053e-10       3.019770850615e-11      -5.929098849220e-14 
   22       1.262380642295e-10       1.118414404514e-15       2.094971048001e-13       0.000000000000e+00       2.779221397376e-10       2.802422885974e-11      -4.716032735209e-14 
   23       1.280987040151e-10       1.205650884364e-15       2.137926147343e-13       0.000000000000e+00       2.567050298864e-10       2.605492089282e-11      -3.274169979121e-14 
   24       1.299844924292e-10       1.338813613178e-15       2.179535550108e-13       0.000000000000e+00       2.376899365243e-10       2.424567116530e-11      -1.916134975900e-14 
   25       1.319147849935e-10       1.517837120790e-15       2.223941572960e-13       0.000000000000e+00       2.206522309327e-10       2.260733518991e-11      -8.269319198794e-15 
   26       1.339080934033e-10       1.735388297192e-15       2.274579531736e-13       0.000000000000e+00       2.052825652763e-10       2.114895163491e-11      -1.390316716953e-15 
   27       1.359480523852e-10       1.985302042468e-15       2.331863714050e-13       0.000000000000e+00       1.913958477484e-10       1.984530100014e-11       1.345000248059e-15 
   28       1.380000260034e-10       2.261602744887e-15       2.394549650098e-13       0.000000000000e+00       1.787519515674e-10       1.865237763905e-11       4.001012601642e-16 
   29       1.400724761651e-10       2.563919764236e-15       2.459766430178e-13       0.000000000000e+00       1.672859670243e-10       1.756155610607e-11      -3.407795705357e-15 
   30       1.421771718724e-10       2.893520423437e-15       2.523207667743e-13       0.000000000000e+00       1.568744478187e-10       1.656492487681e-11      -8.863702634023e-15 
   31       1.443154482596e-10       3.251040375282e-15       2.579740615018e-13       0.000000000000e+00       1.473045983410e-10       1.564606406291e-11      -1.454389233035e-14 
   32       1.464901825712e-10       3.634300994440e-15       2.625405029216e-13       0.000000000000e+00       1.385267936249e-10       1.480000296015e-11      -1.958536973462e-14 
   33       1.486955809921e-10       4.039571574909e-15       2.656048388315e-13       0.000000000000e+00       1.304787698062e-10       1.401900302827e-11      -2.317824430116e-14 
   34       1.509197243675e-10       4.463653394323e-15       2.667725293517e-13       0.000000000000e+00       1.230476670906e-10       1.329077137500e-11      -2.458448495107e-14 
   35       1.531694508855e-10       4.909420219002e-15       2.660063097752e-13       0.000000000000e+00       1.161953463792e-10       1.261323864311e-11      -2.392850602928e-14 
   36       1.554525311143e-10       5.382289505549e-15       2.634105391142e-13       0.000000000000e+00       1.098667395073e-10       1.198400534258e-11      -2.169461709254e-14 
   37       1.577712869398e-10       5.887818118755e-15       2.591277078187e-13       0.000000000000e+00       1.039793602893e-10       1.139796376553e-11      -1.846905242341e-14 
   38       1.601258780592e-10       6.428175039027e-15       2.532728385983e-13       0.000000000000e+00       9.851793052517e-11       1.085402974355e-11      -1.472679003177e-14 
   39       1.625108629885e-10       7.004546360585e-15       2.459828058779e-13       0.000000000000e+00       9.346505356919e-11       1.035006206289e-11      -1.098932545644e-14 
   40       1.649134231970e-10       7.618073308860e-15       2.374372373211e-13       0.000000000000e+00       8.877243127282e-11       9.880702923186e-12      -7.890713115553e-15 
   41       1.673192350544e-10       8.269678888978e-15       2.278064029887e-13       0.000000000000e+00       8.437767749139e-11       9.439257553865e-12      -6.017671482463e-15 
   42       1.697340663754e-10       8.959492232764e-15       2.170682537100e-13       0.000000000000e+00       8.026782014673e-11       9.024739970086e-12      -5.350600440303e-15 
   43       1.721680327760e-10       9.687228265167e-15       2.051361823857e-13       0.000000000000e+00       7.643193498463e-11       8.636651030040e-12      -5.652286772097e-15 
   44       1.746293896455e-10       1.045232340943e-14       1.919074355435e-13       0.000000000000e+00       7.284209192578e-11       8.272889311535e-12      -6.614597211093e-15 
   45       1.771238364759e-10       1.125417303273e-14       1.772659370337e-13       0.000000000000e+00       6.946332672193e-11       7.930561747770e-12      -7.901525356743e-15 
   46       1.796527673082e-10       1.209296771239e-14       1.610945474526e-13       0.000000000000e+00       6.629030090118e-11       7.609012600782e-12      -9.304390454941e-15 
   47       1.822140746183e-10       1.296907862721e-14       1.432644618584e-13       0.000000000000e+00       6.331929898798e-11       7.307477652033e-12      -1.062530481557e-14 
   48       1.848022840430e-10       1.388282316786e-14       1.236305986721e-13       0.000000000000e+00       6.053717136366e-11       7.024146919124e-12      -1.163185168366e-14 
   49       1.874082801761e-10       1.483446290351e-14       1.020306498558e-13       0.000000000000e+00       5.792063279616e-11       6.756088138491e-12      -1.205528060996e-14 
   50       1.900228867248e-10       1.582420099401e-14       7.832934636265e-14       0.000000000000e+00       5.544327185632e-11       6.500136332555e-12      -1.167664306274e-14 
   51       1.926493887851e-10       1.685217831593e-14       5.256762301310e-14       0.000000000000e+00       5.310044959079e-11       6.256024692849e-12      -1.061694939924e-14 
   52       1.952939356178e-10       1.791847277007e-14       2.485230091417e-14       0.000000000000e+00       5.088994677812e-11       6.023971274861e-12      -9.122652311583e-15 
   53       1.979618927443e-10       1.902309773324e-14      -4.684439021637e-15       0.000000000000e+00       4.880451316499e-11       5.803756872674e-12      -7.486868621526e-15 
   54       2.006577491242e-10       2.016599999875e-14      -3.588387811980e-14       0.000000000000e+00       4.683152886118e-11       5.594693964448e-12      -6.051713015315e-15 
   55       2.033848672615e-10       2.134709484692e-14      -6.859893628697e-14       0.000000000000e+00       4.495685318186e-11       5.395894274512e-12      -5.127930654358e-15 
   56       2.061448734750e-10       2.256638617718e-14      -1.028225054768e-13       0.000000000000e+00       4.317826655070e-11       5.207220438929e-12      -4.725069028613e-15 
   57       2.089379535719e-10       2.382387261195e-14      -1.385889337287e-13       0.000000000000e+00       4.149477476085e-11       5.028516359664e-12      -4.758362718806e-15 
   58       2.117628998593e-10       2.511951238173e-14      -1.759378116631e-13       0.000000000000e+00       3.990254245427e-11       4.859310303743e-12      -5.124692612650e-15 
   59       2.146170122020e-10       2.645322271221e-14      -2.149143278093e-13       0.000000000000e+00       3.839471766406e-11       4.698795483147e-12      -5.701697518004e-15 
   60       2.174959990804e-10       2.782487921134e-14      -2.555696239331e-13       0.000000000000e+00       3.696125635676e-11       4.545810634714e-12      -6.346885776016e-15 
   61       2.203956500312e-10       2.923425459799e-14      -2.979505866052e-13       0.000000000000e+00       3.559171077706e-11       4.399156838177e-12      -6.927210037608e-15 
   62       2.233175154806e-10       3.068082020321e-14      -3.420657404261e-13       0.000000000000e+00       3.428472278797e-11       4.258675004087e-12      -7.417558704542e-15 
   63       2.262643320378e-10       3.216389862344e-14      -3.879122948646e-13       0.000000000000e+00       3.304035975756e-11       4.124376878976e-12      -7.822896101851e-15 
   64       2.292383217203e-10       3.368271796001e-14      -4.354860522185e-13       0.000000000000e+00       3.185725898388e-11       3.996121570681e-12      -8.149826756620e-15 
   65       2.322411492167e-10       3.523640928166e-14      -4.847814277632e-13       0.000000000000e+00       3.073254627644e-11       3.873606796819e-12      -8.406673584267e-15 
   66       2.352738791484e-10       3.682400408693e-14      -5.357914698989e-13       0.000000000000e+00       2.966175453778e-11       3.756360133276e-12      -8.603556074835e-15 
   67       2.383369333324e-10       3.844443176668e-14      -5.885078802988e-13       0.000000000000e+00       2.863874234493e-11       3.643730262683e-12      -8.752468479271e-15 
   68       2.414304716646e-10       4.009662821350e-14      -6.429199524676e-13       0.000000000000e+00       2.765733381494e-11       3.535072584715e-12      -8.865751386183e-15 
   69       2.445557199199e-10       4.177989287742e-14      -6.990110926311e-13       0.000000000000e+00       2.671680604610e-11       3.430369282217e-12      -8.950972053762e-15 
   70       2.477138354596e-10       4.349359983298e-14      -7.567616268428e-13       0.000000000000e+00       2.581737242188e-11       3.329719752470e-12      -9.015142389162e-15 
   71       2.509054760848e-10       4.523709333323e-14      -8.161498128187e-13       0.000000000000e+00       2.495852298195e-11       3.233153649254e-12      -9.066270202615e-15 
   72       2.541307681327e-10       4.700968811478e-14      -8.771518324230e-13       0.000000000000e+00       2.413898702633e-11       3.140627102217e-12      -9.113396303948e-15 
   73       2.573892745738e-10       4.881066970293e-14      -9.397417841539e-13       0.000000000000e+00       2.335669571954e-11       3.052018936252e-12      -9.166631599119e-15 
   74       2.606799631081e-10       5.063929471675e-14      -1.003891675629e-12       0.000000000000e+00       2.260874469470e-11       2.967126890863e-12      -9.237194186741e-15 
   75       2.640011742619e-10       5.249479117416e-14      -1.069571416073e-12       0.000000000000e+00       2.189135665768e-11       2.885663839544e-12      -9.337446454609e-15 
   76       2.673512764380e-10       5.437621596779e-14      -1.136746365326e-12       0.000000000000e+00       2.120081894638e-11       2.807333698458e-12      -9.477265882409e-15 
   77       2.707308394941e-10       5.628199661309e-14      -1.205369481502e-12       0.000000000000e+00       2.053657625411e-11       2.732083490438e-12      -9.652311405442e-15 
   78       2.741408014063e-10       5.821030610180e-14      -1.275387721118e-12       0.000000000000e+00       1.989863655870e-11       2.659890590987e-12      -9.853674821650e-15 
   79       2.775817989502e-10       6.015919573659e-14      -1.346744298841e-12       0.000000000000e+00       1.928662907757e-11       2.590685004911e-12      -1.007131979782e-14 
   80       2.810541498842e-10       6.212659250730e-14      -1.419378629879e-12       0.000000000000e+00       1.869978686408e-11       2.524347219776e-12      -1.029404378579e-14 
   81       2.845578351329e-10       6.411029646721e-14      -1.493226272350e-12       0.000000000000e+00       1.813692940388e-11       2.460706059383e-12      -1.050943993865e-14 
   82       2.880924809699e-10       6.610797810926e-14      -1.568218869672e-12       0.000000000000e+00       1.759644521135e-11       2.399536537228e-12      -1.070385902695e-14 
   83       2.916573412015e-10       6.811717574237e-14      -1.644284092937e-12       0.000000000000e+00       1.707627442593e-11       2.340557709971e-12      -1.086237135491e-14 
   84       2.952516771101e-10       7.013552841438e-14      -1.721353684761e-12       0.000000000000e+00       1.657440944771e-11       2.283499319875e-12      -1.097183815819e-14 
   85       2.988760086830e-10       7.216152479443e-14      -1.799389249202e-12       0.000000000000e+00       1.609053032573e-11       2.228319117859e-12      -1.103079424717e-14 
   86       3.025310391095e-10       7.419387420617e-14      -1.878360651500e-12       0.000000000000e+00       1.562460983423e-11       2.175017799949e-12      -1.104114148925e-14 
   87       3.062172644950e-10       7.623128343464e-14      -1.958238374122e-12       0.000000000000e+00       1.517641096965e-11       2.123572445748e-12      -1.100519896121e-14 
   88       3.099349627292e-10       7.827245806128e-14      -2.038993595308e-12       0.000000000000e+00       1.474547825348e-11       2.073935528021e-12      -1.092571712562e-14 
   89       3.136841823548e-10       8.031610379894e-14      -2.120598267604e-12       0.000000000000e+00       1.433112903517e-11       2.026033922278e-12      -1.080589200720e-14 
   90       3.174647314353e-10       8.236092782698e-14      -2.203025196407e-12       0.000000000000e+00       1.393244479512e-11       1.979767916357e-12      -1.064937936927e-14 
   91       3.212761664237e-10       8.440564012621e-14      -2.286248118498e-12       0.000000000000e+00       1.354826244753e-11       1.935010220005e-12      -1.046030889009e-14 
   92       3.251177810304e-10       8.644895481399e-14      -2.370241780589e-12       0.000000000000e+00       1.317716564332e-11       1.891604974465e-12      -1.024329833931e-14 
   93       3.289888614023e-10       8.848949103963e-14      -2.454974249345e-12       0.000000000000e+00       1.281782085749e-11       1.849406603132e-12      -1.000309545395e-14 
   94       3.328895197384e-10       9.052545572074e-14      -2.540382347882e-12       0.000000000000e+00       1.247006236294e-11       1.808405198733e-12      -9.743411161959e-15 
   95       3.368199660521e-10       9.255491533676e-14      -2.626392652938e-12       0.000000000000e+00       1.213395511600e-11       1.768618250953e-12      -9.467936269583e-15 
   96       3.407802456555e-10       9.457589207375e-14      -2.712928906491e-12       0.000000000000e+00       1.180946060058e-11       1.730052048088e-12      -9.180707070297e-15 
   97       3.447702316841e-10       9.658636378071e-14      -2.799911987663e-12       0.000000000000e+00       1.149643286387e-11       1.692701233524e-12      -8.886114410678e-15 
   98       3.487896176197e-10       9.858426392591e-14      -2.887259884616e-12       0.000000000000e+00       1.119461455205e-11       1.656548362206e-12      -8.588912756298e-15 
   99       3.528379098151e-10       1.005674815532e-13      -2.974887666461e-12       0.000000000000e+00       1.090363294602e-11       1.621563457117e-12      -8.294229257618e-15 
  100       3.569144200176e-10       1.025338612383e-13      -3.062707455159e-12       0.000000000000e+00       1.062299599710e-11       1.587703565753e-12      -8.007572815880e-15 
  101       3.610182578929e-10       1.044812030451e-13      -3.150628397418e-12       0.000000000000e+00       1.035208836277e-11       1.554912316600e-12      -7.734843148997e-15 
  102       3.651483235491e-10       1.064072624820e-13      -3.238556636603e-12       0.000000000000e+00       1.009016744235e-11       1.523119475605e-12      -7.482339857446e-15 
  103       3.693033000603e-10       1.083097504583e-13      -3.326395284634e-12       0.000000000000e+00       9.836359412776e-12       1.492240502653e-12      -7.256771490162e-15 
  104       3.734819338126e-10       1.101864385405e-13      -3.414050724383e-12       0.000000000000e+00       9.589857357198e-12       1.462196258183e-12      -7.063705796019e-15 
  105       3.776839347731e-10       1.120354910102e-13      -3.501452546976e-12       0.000000000000e+00       9.350554670846e-12       1.432976110104e-12      -6.902662528909e-15 
  106       3.819091844623e-10       1.138551777898e-13      -3.588536267887e-12       0.000000000000e+00       9.118490226856e-12       1.404582564526e-12      -6.771371567624e-15 
  107       3.861574547316e-10       1.156437742478e-13      -3.675237277914e-12       0.000000000000e+00       8.893652201603e-12       1.377011657468e-12      -6.667264568418e-15 
