# dimensionless total lensed [l(l+1)/2pi] C_l's
# for l=2 to 2500, i.e. number of multipoles equal to 2499
#
# -> if you prefer output in CAMB/HealPix/LensPix units/order, set 'format' to 'camb' in input file
# -> if you don't want to see such a header, set 'headers' to 'no' in input file
# -> for CMB lensing (phi), these are C_l^phi-phi for the lensing potential.
#    Remember the conversion factors:
#    C_l^dd (deflection) = l(l+1) C_l^phi-phi
#    C_l^gg (shear/convergence) = 1/4 (l(l+1))^2 C_l^phi-phi
#
# 1:l     2:TT                     3:EE                     4:TE                     5:BB                     6:phiphi                 7:TPhi                   8:Ephi               
    2       1.494068119624e-10       7.312232558196e-15       4.828593537804e-13       2.491642521990e-19       8.739473220068e-09       4.832960546047e-10      -2.513923434368e-12 
    3       1.408613789352e-10       1.237455840105e-14       6.075835937110e-13       4.985574536169e-19       5.369993280225e-09       3.444708687167e-10      -2.211514136672e-12 
    4       1.324293562245e-10       1.443835169790e-14       6.285880636249e-13       8.314297999789e-19       3.736313861639e-09       2.620054688290e-10      -1.763549019772e-12 
    5       1.257511279361e-10       1.334184180610e-14       5.885830294737e-13       1.248064420583e-18       2.788924958718e-09       2.077420069608e-10      -1.308222862581e-12 
    6       1.208312954389e-10       1.028418882366e-14       5.177054564690e-13       1.748796913941e-18       2.177994327215e-09       1.695742593357e-10      -8.930943065493e-13 
    7       1.173940224319e-10       6.808807802939e-15       4.365033716759e-13       2.334004219702e-18       1.756329070553e-09       1.414648328577e-10      -5.423702659205e-13 
    8       1.150865746185e-10       4.020866988562e-15       3.574000085411e-13       3.004092288137e-18       1.450267723005e-09       1.199972745246e-10      -2.668709053365e-13 
    9       1.136770143347e-10       2.326718879684e-15       2.877250228917e-13       3.759483034925e-18       1.219746719492e-09       1.031179379592e-10      -6.821363066649e-14 
   10       1.129578534980e-10       1.570916219866e-15       2.315039834501e-13       4.600601095818e-18       1.041616982350e-09       8.960726263163e-11       5.898779718167e-14 
   11       1.127785580930e-10       1.349890537761e-15       1.904062898394e-13       5.527860901641e-18       8.760501302060e-10       7.896574685229e-11       1.243922906537e-13 
   12       1.130605811087e-10       1.293773006180e-15       1.640902625554e-13       6.541654578824e-18       7.651789991490e-10       6.988689380451e-11       1.428516520494e-13 
   13       1.136506709992e-10       1.206220135456e-15       1.507260548431e-13       7.642341144881e-18       6.742092043232e-10       6.241278792274e-11       1.280420726714e-13 
   14       1.144580669633e-10       1.060578915941e-15       1.477057759149e-13       8.830237413384e-18       5.985504590903e-10       5.593612725375e-11       9.294564313157e-14 
   15       1.154937659040e-10       9.172783206818e-16       1.520085428850e-13       1.010561095125e-17       5.348926117551e-10       5.052040199630e-11       4.972321863830e-14 
   16       1.167407979994e-10       8.375322601476e-16       1.605508142693e-13       1.146867534562e-17       4.807896023481e-10       4.595466544458e-11       7.460635749462e-15 
   17       1.180724739047e-10       8.383334341061e-16       1.708931653800e-13       1.291958794138e-17       4.343947614971e-10       4.202582056072e-11      -2.752844158008e-14 
   18       1.195289890501e-10       8.918959012776e-16       1.812538205332e-13       1.445844889837e-17       3.941383118222e-10       3.850360871381e-11      -5.176329389783e-14 
   19       1.211184180904e-10       9.657656991298e-16       1.906704692130e-13       1.608530999065e-17       3.593796912955e-10       3.537291614032e-11      -6.436729354706e-14 
   20       1.227636582884e-10       1.026939122055e-15       1.983930972140e-13       1.780016646903e-17       3.287741219011e-10       3.261783972508e-11      -6.615653638562e-14 
   21       1.244799943251e-10       1.078811446876e-15       2.045046103779e-13       1.960298194860e-17       3.018386553377e-10       3.019845185594e-11      -5.929224390725e-14 
   22       1.262776001583e-10       1.139857764858e-15       2.094679147338e-13       2.149367868434e-17       2.779272440191e-10       2.802493200358e-11      -4.716151382686e-14 
   23       1.281411425786e-10       1.229058129303e-15       2.137591342971e-13       2.347216714672e-17       2.567098260529e-10       2.605559928087e-11      -3.274250777390e-14 
   24       1.300299744212e-10       1.364271063147e-15       2.179155131507e-13       2.553833625162e-17       2.376944462636e-10       2.424632149064e-11      -1.916159311124e-14 
   25       1.319634083934e-10       1.545430337170e-15       2.223511047082e-13       2.769208783352e-17       2.206564768870e-10       2.260795199530e-11      -8.269034492005e-15 
   26       1.339598880337e-10       1.765201740911e-15       2.274092339687e-13       2.993332469167e-17       2.052865707992e-10       2.114953295691e-11      -1.389768233566e-15 
   27       1.360030653849e-10       2.017420759074e-15       2.331315172069e-13       3.226198079316e-17       1.913996327246e-10       1.984584917276e-11       1.345621903678e-15 
   28       1.380583463022e-10       2.296112661774e-15       2.393937976561e-13       3.467801364037e-17       1.787555298814e-10       1.865289903857e-11       4.007681629716e-16 
   29       1.401341956189e-10       2.600905834694e-15       2.459089740704e-13       3.718143903829e-17       1.672893518170e-10       1.756205666867e-11      -3.407095738690e-15 
   30       1.422423713731e-10       2.933065788173e-15       2.522462821388e-13       3.977231167207e-17       1.568776515638e-10       1.656540803673e-11      -8.863014699999e-15 
   31       1.443841967709e-10       3.293226314922e-15       2.578923006387e-13       4.245072500993e-17       1.473076316361e-10       1.564653014205e-11      -1.454329360233e-14 
   32       1.465625455184e-10       3.679208212142e-15       2.624509040703e-13       4.521683447230e-17       1.385296673001e-10       1.480045023790e-11      -1.958493747289e-14 
   33       1.487716226449e-10       4.087280653944e-15       2.655067402281e-13       4.807085124778e-17       1.304814946937e-10       1.401942766800e-11      -2.317804298076e-14 
   34       1.509995077421e-10       4.514244925852e-15       2.666651983956e-13       5.101303612893e-17       1.230502531892e-10       1.329116781729e-11      -2.458455541489e-14 
   35       1.532530375204e-10       4.962974931405e-15       2.658891323774e-13       5.404368124628e-17       1.161978033542e-10       1.261360327473e-11      -2.392883524666e-14 
   36       1.555399808775e-10       5.438888414968e-15       2.632831087702e-13       5.716312974194e-17       1.098690761489e-10       1.198433808228e-11      -2.169511910488e-14 
   37       1.578626579773e-10       5.947542528339e-15       2.589898098557e-13       6.037176094907e-17       1.039815840070e-10       1.139826821012e-11      -1.846957520862e-14 
   38       1.602212272207e-10       6.491105975629e-15       2.531242077261e-13       6.366990780685e-17       9.852004848690e-11       1.085431115932e-11      -1.472719713255e-14 
   39       1.626102458944e-10       7.070764394794e-15       2.458230351084e-13       6.705791739347e-17       9.346707262920e-11       1.035032684661e-11      -1.098952794479e-14 
   40       1.650168941546e-10       7.687658524454e-15       2.372657447675e-13       7.053617606785e-17       8.877435739323e-11       9.880958636236e-12      -7.890682662986e-15 
   41       1.674268465143e-10       8.342710850215e-15       2.276224593501e-13       7.410507151423e-17       8.437951549488e-11       9.439512244482e-12      -6.017441311065e-15 
   42       1.698458668730e-10       9.036049946569e-15       2.168712208136e-13       7.776485835116e-17       8.026957471348e-11       9.024999088585e-12      -5.350223069226e-15 
   43       1.722840658630e-10       9.767390145186e-15       2.049256057115e-13       8.151575273999e-17       7.643361072454e-11       8.636915962092e-12      -5.651822375951e-15 
   44       1.747496931713e-10       1.053616724017e-14       1.916830819188e-13       8.535796851356e-17       7.284369307978e-11       8.273156501623e-12      -6.614113739634e-15 
   45       1.772484431691e-10       1.134177592205e-14       1.770277902016e-13       8.929168055540e-17       6.946485702186e-11       7.930823170598e-12      -7.901094369307e-15 
   46       1.797817098406e-10       1.218440600729e-14       1.608426571928e-13       9.331690290928e-17       6.629176401962e-11       7.609260878885e-12      -9.304068623465e-15 
   47       1.823473874427e-10       1.306442785357e-14       1.429988994195e-13       9.743357348763e-17       6.332069853270e-11       7.307707828291e-12      -1.062512543697e-14 
   48       1.849400040263e-10       1.398215797833e-14       1.233514522756e-13       1.016415846383e-16       6.053851069059e-11       7.024356978402e-12      -1.163181982280e-14 
   49       1.875504472608e-10       1.493785702368e-14       1.017380197942e-13       1.059407806247e-16       5.792191480842e-11       6.756279558193e-12      -1.205536797500e-14 
   50       1.901695429807e-10       1.593172693926e-14       7.802335655293e-14       1.103309517592e-16       5.544449895442e-11       6.500313827043e-12      -1.167679163150e-14 
   51       1.928005720492e-10       1.696390635075e-14       5.224848812845e-14       1.148118207731e-16       5.310162415734e-11       6.256193214392e-12      -1.061710471951e-14 
   52       1.954496771266e-10       1.803447041645e-14       2.452035232119e-14       1.193830483913e-16       5.089107124890e-11       6.024135063356e-12      -9.122774719593e-15 
   53       1.981222162292e-10       1.914342947671e-14      -5.028742491817e-15       1.240442337412e-16       4.880558994132e-11       5.803919265208e-12      -7.486936298960e-15 
   54       2.008226698582e-10       2.029072698210e-14      -3.623993901343e-14       1.287949116761e-16       4.683256021611e-11       5.594857194485e-12      -6.051725203144e-15 
   55       2.035543926938e-10       2.147627477173e-14      -6.896601292854e-14       1.336346043704e-16       4.495784121942e-11       5.396059408013e-12      -5.127906153733e-15 
   56       2.063190092003e-10       2.270007391788e-14      -1.031997255511e-13       1.385629972508e-16       4.317921335428e-11       5.207387784906e-12      -4.725028832638e-15 
   57       2.091167052053e-10       2.396212027270e-14      -1.389752927689e-13       1.435798020806e-16       4.149568238847e-11       5.028685505985e-12      -4.758324845880e-15 
   58       2.119462734067e-10       2.526236914494e-14      -1.763321658576e-13       1.486847059654e-16       3.990341287483e-11       4.859480011408e-12      -5.124671431990e-15 
   59       2.148050144453e-10       2.660073468322e-14      -2.153153866536e-13       1.538773707897e-16       3.839555268955e-11       4.698963575923e-12      -5.701703042245e-15 
   60       2.176886379784e-10       2.797708925939e-14      -2.559759427266e-13       1.591574326551e-16       3.696205757065e-11       4.545973884140e-12      -6.346922920912e-15 
   61       2.205929342391e-10       2.939120245135e-14      -2.983605678874e-13       1.645245790388e-16       3.559247952864e-11       4.399311186589e-12      -6.927278822792e-15 
   62       2.235194509587e-10       3.084254338214e-14      -3.424776649324e-13       1.699788017859e-16       3.428546041118e-11       4.258816900895e-12      -7.417657598775e-15 
   63       2.264709209420e-10       3.233043271752e-14      -3.883243293431e-13       1.755202001636e-16       3.304106760899e-11       4.124503746480e-12      -7.823022874411e-15 
   64       2.294495621189e-10       3.385409666849e-14      -4.358962488664e-13       1.811489100157e-16       3.185793841354e-11       3.996231955378e-12      -8.149978415025e-15 
   65       2.324570347934e-10       3.541266445811e-14      -4.851877237959e-13       1.868651056658e-16       3.073319859681e-11       3.873700526949e-12      -8.406846309998e-15 
   66       2.354943988930e-10       3.700516578841e-14      -5.361916872530e-13       1.926690018203e-16       2.966238099118e-11       3.756438482598e-12      -8.603745157041e-15 
   67       2.385620712179e-10       3.863052830719e-14      -5.888997254674e-13       1.985608554721e-16       2.863934406914e-11       3.643796120488e-12      -8.752668246480e-15 
   68       2.416602069061e-10       4.028768622019e-14      -6.433010143117e-13       2.045409559112e-16       2.765791183845e-11       3.535130262276e-12      -8.865955472183e-15 
   69       2.447900291454e-10       4.197593734538e-14      -6.993788333420e-13       2.106095881542e-16       2.671736138314e-11       3.430423129053e-12      -8.951174749145e-15 
   70       2.479526933344e-10       4.369465418903e-14      -7.571133785982e-13       2.167670654901e-16       2.581790608484e-11       3.329773731727e-12      -9.015339124599e-15 
   71       2.511488553774e-10       4.544317950573e-14      -8.164827765509e-13       2.230137422867e-16       2.495903596345e-11       3.233211258376e-12      -9.066457721873e-15 
   72       2.543786397830e-10       4.722082660788e-14      -8.774630766649e-13       2.293500155902e-16       2.413948028033e-11       3.140691290400e-12      -9.113572843509e-15 
   73       2.576416077628e-10       4.902687967514e-14      -9.400282439627e-13       2.357763267238e-16       2.335717014151e-11       3.052092018667e-12      -9.166797074378e-15 
   74       2.609367253306e-10       5.086059406384e-14      -1.004150151589e-12       2.422931628876e-16       2.260920110094e-11       2.967210459665e-12      -9.237350384806e-15 
   75       2.642623314005e-10       5.272119661649e-14      -1.069798573373e-12       2.489010587568e-16       2.189179576366e-11       2.885758671650e-12      -9.337597233686e-15 
   76       2.676167916585e-10       5.460774317343e-14      -1.136938724076e-12       2.556005003392e-16       2.120124136983e-11       2.807439772608e-12      -9.477416869104e-15 
   77       2.710006683503e-10       5.651866042631e-14      -1.205523378728e-12       2.623916127699e-16       2.053698259933e-11       2.732200362239e-12      -9.652468065550e-15 
   78       2.744148900447e-10       5.845212069349e-14      -1.275499296023e-12       2.692744182250e-16       1.989902743286e-11       2.660017469701e-12      -9.853841871447e-15 
   79       2.778600834130e-10       6.040617472973e-14      -1.346809486364e-12       2.762489282145e-16       1.928700508231e-11       2.590820722626e-12      -1.007150109395e-14 
   80       2.813365553897e-10       6.237874910755e-14      -1.419393154139e-12       2.833151431775e-16       1.870014858676e-11       2.524490199667e-12      -1.029424221129e-14 
   81       2.848442753338e-10       6.436764359843e-14      -1.493185639994e-12       2.904730520767e-16       1.813727740846e-11       2.460854283048e-12      -1.050965728518e-14 
   82       2.883828571899e-10       6.637052855409e-14      -1.568118363114e-12       2.977226319932e-16       1.759678002878e-11       2.399687511116e-12      -1.070409587312e-14 
   83       2.919515416492e-10       6.838494228779e-14      -1.644118763499e-12       3.050638477215e-16       1.707659654427e-11       2.340708430886e-12      -1.086262694081e-14 
   84       2.955495787007e-10       7.040852386359e-14      -1.721118362220e-12       3.124966666596e-16       1.657471931293e-11       2.283646408318e-12      -1.097211049469e-14 
   85       2.991774872278e-10       7.243976154121e-14      -1.799078603931e-12       3.200211072016e-16       1.609082837751e-11       2.228459488829e-12      -1.103108098252e-14 
   86       3.028359724901e-10       7.447736418307e-14      -1.877969212584e-12       3.276371976625e-16       1.562489651194e-11       2.175148884117e-12      -1.104144013749e-14 
   87       3.065255333535e-10       7.652003819606e-14      -1.957760531912e-12       3.353449615495e-16       1.517668670743e-11       2.123692251700e-12      -1.100550690327e-14 
   88       3.102464511806e-10       7.856648886924e-14      -2.038423604142e-12       3.431444174143e-16       1.474574347517e-11       2.074042706414e-12      -1.092603161059e-14 
   89       3.139987787211e-10       8.061542171153e-14      -2.119930248711e-12       3.510355787051e-16       1.433138414909e-11       2.026127831919e-12      -1.080621015381e-14 
   90       3.177823290019e-10       8.266554378946e-14      -2.202253140973e-12       3.590184536184e-16       1.393269018853e-11       1.979848692202e-12      -1.064969816748e-14 
   91       3.215966642178e-10       8.471556506484e-14      -2.285365890922e-12       3.670930449506e-16       1.354849848098e-11       1.935078843079e-12      -1.046062520294e-14 
   92       3.254410846214e-10       8.676419973247e-14      -2.369243121897e-12       3.752593499504e-16       1.317739264478e-11       1.891663343702e-12      -1.024360890481e-14 
   93       3.293148808235e-10       8.881006755033e-14      -2.453852780561e-12       3.835174758092e-16       1.281803912441e-11       1.849457402728e-12      -1.000339698754e-14 
   94       3.332181582309e-10       9.085137794903e-14      -2.539131572829e-12       3.918680063244e-16       1.247027218993e-11       1.808451112709e-12      -9.743700777088e-15 
   95       3.371511166402e-10       9.288620066461e-14      -2.625005961846e-12       4.003116903651e-16       1.213415680041e-11       1.768661735427e-12      -9.468211628524e-15 
   96       3.411137904828e-10       9.491256147825e-14      -2.711399579989e-12       4.088493325670e-16       1.180965444018e-11       1.730095300293e-12      -9.180966440467e-15 
   97       3.451060413313e-10       9.692844218115e-14      -2.798233200944e-12       4.174817947714e-16       1.149661915443e-11       1.692746159916e-12      -8.886356722500e-15 
   98       3.491275504056e-10       9.893178053947e-14      -2.885424711777e-12       4.262099974645e-16       1.119479358482e-11       1.656596545660e-12      -8.589137662620e-15 
   99       3.531778110786e-10       1.009204702593e-13      -2.972889085008e-12       4.350349212169e-16       1.090380500518e-11       1.621616123207e-12      -8.294437194673e-15 
  100       3.572561213829e-10       1.028923609514e-13      -3.060538350686e-12       4.439576081224e-16       1.062316135703e-11       1.587761548118e-12      -8.007765065790e-15 
  101       3.613615765165e-10       1.048452580964e-13      -3.148281568458e-12       4.529791632377e-16       1.035224728532e-11       1.554976021398e-12      -7.735021903831e-15 
  102       3.654930613491e-10       1.067769230095e-13      -3.236024799650e-12       4.621007560213e-16       1.009032017397e-11       1.523188845052e-12      -7.482508284818e-15 
  103       3.696492429282e-10       1.086850728054e-13      -3.323671079332e-12       4.713236217729e-16       9.836506181538e-12       1.492314977652e-12      -7.256933800378e-15 
  104       3.738288534364e-10       1.105674855432e-13      -3.411126728258e-12       4.806489328248e-16       9.589998373842e-12       1.462274842569e-12      -7.063867037803e-15 
  105       3.780315987362e-10       1.124223319119e-13      -3.498321319883e-12       4.900773891999e-16       9.350690142494e-12       1.433057757337e-12      -6.902827525766e-15 
  106       3.822573591571e-10       1.142478884939e-13      -3.585190371094e-12       4.996095750832e-16       9.118620359588e-12       1.404666283999e-12      -6.771544599823e-15 
  107       3.865059057537e-10       1.160424376933e-13      -3.671669284444e-12       5.092460841398e-16       8.893777199084e-12       1.377096522378e-12      -6.667449316136e-15 
