5.0000000000000002e-05 2.2346821524589489e+00 8.2200741971594271e-01 4.7183670794855692e-01 3.1949659347353571e-01 2.3599407184636656e-01 1.8401022119187896e-01 1.4891123933637021e-01 
2.0539078156312628e-03 2.2296968641056423e+00 8.2039987955228000e-01 4.7093602408067609e-01 3.1890734125998854e-01 2.3559333397712015e-01 1.8374563762497137e-01 1.4875617556848433e-01 
4.0578156312625260e-03 2.2247174670951084e+00 8.1879400809958081e-01 4.7003680922265056e-01 3.1831945878044460e-01 2.3519374909450830e-01 1.8348188519394984e-01 1.4860157995333920e-01 
6.0617234468937891e-03 2.2197439465535398e+00 8.1718979816249515e-01 4.6913905402606565e-01 3.1773293553693371e-01 2.3479530778103874e-01 1.8321895748904851e-01 1.4844744965287793e-01 
8.0656312625250522e-03 2.2147762876322692e+00 8.1558724257977144e-01 4.6824274921893694e-01 3.1714776114018450e-01 2.3439800072643602e-01 1.8295684817204808e-01 1.4829378185624736e-01 
1.0069539078156315e-02 2.2098144755075957e+00 8.1398633422397748e-01 4.6734788560488516e-01 3.1656392530820443e-01 2.3400181872612474e-01 1.8269555097530124e-01 1.4814057377949713e-01 
1.2073446893787579e-02 2.2048584953806172e+00 8.1238706600122390e-01 4.6645445406232217e-01 3.1598141786488015e-01 2.3360675267973882e-01 1.8243505970077484e-01 1.4798782266528251e-01 
1.4077354709418842e-02 2.1999083324770559e+00 8.1078943085089017e-01 4.6556244554364634e-01 3.1540022873860124e-01 2.3321279358965666e-01 1.8217536821910835e-01 1.4783552578257178e-01 
1.6081262525050103e-02 2.1949639720470913e+00 8.0919342174535214e-01 4.6467185107444997e-01 3.1482034796090513e-01 2.3281993255956029e-01 1.8191647046868717e-01 1.4768368042635752e-01 
1.8085170340681366e-02 2.1900253993651870e+00 8.0759903168971170e-01 4.6378266175273386e-01 3.1424176566514328e-01 2.3242816079302078e-01 1.8165836045473213e-01 1.4753228391737205e-01 
2.0089078156312629e-02 2.1850925997299200e+00 8.0600625372153001e-01 4.6289486874813446e-01 3.1366447208516757e-01 2.3203746959210605e-01 1.8140103224840323e-01 1.4738133360180672e-01 
2.2092985971943892e-02 2.1801655584638104e+00 8.0441508091055913e-01 4.6200846330115997e-01 3.1308845755403880e-01 2.3164785035601321e-01 1.8114447998591890e-01 1.4723082685103520e-01 
2.4096893787575156e-02 2.1752442609131464e+00 8.0282550635848127e-01 4.6112343672243555e-01 3.1251371250275306e-01 2.3125929457972383e-01 1.8088869786768966e-01 1.4708076106134088e-01 
2.6100801603206419e-02 2.1703286924478205e+00 8.0123752319864372e-01 4.6023978039195779e-01 3.1194022745898980e-01 2.3087179385268192e-01 1.8063368015746528e-01 1.4693113365364738e-01 
2.8104709418837682e-02 2.1654188384611506e+00 7.9965112459580101e-01 4.5935748575836027e-01 3.1136799304587826e-01 2.3048533985749367e-01 1.8037942118149666e-01 1.4678194207325354e-01 
3.0108617234468945e-02 2.1605146843697116e+00 7.9806630374585641e-01 4.5847654433818574e-01 3.1079699998078286e-01 2.3009992436865020e-01 1.8012591532771144e-01 1.4663318378957180e-01 
3.2112525050100205e-02 2.1556162156131635e+00 7.9648305387560603e-01 4.5759694771516979e-01 3.1022723907410787e-01 2.2971553925127003e-01 1.7987315704490231e-01 1.4648485629586980e-01 
3.4116432865731468e-02 2.1507234176540804e+00 7.9490136824248381e-01 4.5671868753953265e-01 3.0965870122812006e-01 2.2933217645986420e-01 1.7962114084192932e-01 1.4633695710901659e-01 
3.6120340681362731e-02 2.1458362759777758e+00 7.9332124013431149e-01 4.5584175552727785e-01 3.0909137743578924e-01 2.2894982803712022e-01 1.7936986128693461e-01 1.4618948376923099e-01 
3.8124248496993994e-02 2.1409547760921330e+00 7.9174266286904604e-01 4.5496614345950293e-01 3.0852525877964670e-01 2.2856848611270819e-01 1.7911931300657008e-01 1.4604243383983470e-01 
4.0128156312625257e-02 2.1360789035274297e+00 7.9016562979453242e-01 4.5409184318171647e-01 3.0796033643066156e-01 2.2818814290210487e-01 1.7886949068523750e-01 1.4589580490700788e-01 
4.2132064128256520e-02 2.1312086438361710e+00 7.8859013428825697e-01 4.5321884660316403e-01 3.0739660164713306e-01 2.2780879070543833e-01 1.7862038906434077e-01 1.4574959457954831e-01 
4.4135971943887783e-02 2.1263439825929100e+00 7.8701616975710276e-01 4.5234714569616219e-01 3.0683404577360068e-01 2.2743042190635115e-01 1.7837200294155034e-01 1.4560380048863455e-01 
4.6139879759519047e-02 2.1214849053940790e+00 7.8544372963710618e-01 4.5147673249544218e-01 3.0627266023977023e-01 2.2705302897088203e-01 1.7812432717007912e-01 1.4545842028759121e-01 
4.8143787575150310e-02 2.1166313978578155e+00 7.8387280739321596e-01 4.5060759909749887e-01 3.0571243655945657e-01 2.2667660444636697e-01 1.7787735665797039e-01 1.4531345165165818e-01 
5.0147695390781573e-02 2.1117834456237872e+00 7.8230339651905467e-01 4.4973973765995057e-01 3.0515336632954149e-01 2.2630114096035683e-01 1.7763108636739675e-01 1.4516889227776289e-01 
5.2151603206412836e-02 2.1069410343530217e+00 7.8073549053667934e-01 4.4887314040090492e-01 3.0459544122894805e-01 2.2592663121955336e-01 1.7738551131397051e-01 1.4502473988429557e-01 
5.4155511022044099e-02 2.1021041497277286e+00 7.7916908299634724e-01 4.4800779959833248e-01 3.0403865301763011e-01 2.2555306800876268e-01 1.7714062656606458e-01 1.4488099221088757e-01 
5.6159418837675362e-02 2.0972727774511304e+00 7.7760416747628047e-01 4.4714370758944960e-01 3.0348299353557689e-01 2.2518044418986552e-01 1.7689642724414459e-01 1.4473764701819283e-01 
5.8163326653306625e-02 2.0924469032472843e+00 7.7604073758243441e-01 4.4628085677010643e-01 3.0292845470183205e-01 2.2480875270080392e-01 1.7665290852011126e-01 1.4459470208767211e-01 
6.0167234468937889e-02 2.0876265128609064e+00 7.7447878694826577e-01 4.4541923959418478e-01 3.0237502851352738e-01 2.2443798655458480e-01 1.7641006561665354e-01 1.4445215522138041e-01 
6.2171142284569152e-02 2.0828115920572041e+00 7.7291830923450455e-01 4.4455884857300110e-01 3.0182270704493236e-01 2.2406813883829882e-01 1.7616789380661133e-01 1.4431000424175694e-01 
6.4175050100200415e-02 2.0780021266216924e+00 7.7135929812892545e-01 4.4369967627471751e-01 3.0127148244651530e-01 2.2369920271215613e-01 1.7592638841234867e-01 1.4416824699141828e-01 
6.6178957915831671e-02 2.0731981023600246e+00 7.6980174734612283e-01 4.4284171532376065e-01 3.0072134694402053e-01 2.2333117140853656e-01 1.7568554480513671e-01 1.4402688133295422e-01 
6.8182865731462927e-02 2.0683995050978128e+00 7.6824565062728534e-01 4.4198495840024693e-01 3.0017229283755781e-01 2.2296403823105526e-01 1.7544535840454614e-01 1.4388590514872590e-01 
7.0186773547094183e-02 2.0636063206804560e+00 7.6669100173997440e-01 4.4112939823941383e-01 2.9962431250070604e-01 2.2259779655364387e-01 1.7520582467784937e-01 1.4374531634066795e-01 
7.2190681362725440e-02 2.0588185349729611e+00 7.6513779447790109e-01 4.4027502763105969e-01 2.9907739837962938e-01 2.2223243981964536e-01 1.7496693913943143e-01 1.4360511283009125e-01 
7.4194589178356696e-02 2.0540361338597650e+00 7.6358602266070852e-01 4.3942183941898888e-01 2.9853154299220713e-01 2.2186796154092395e-01 1.7472869735021124e-01 1.4346529255749066e-01 
7.6198496993987952e-02 2.0492591032445620e+00 7.6203568013375234e-01 4.3856982650046406e-01 2.9798673892717598e-01 2.2150435529698898e-01 1.7449109491707027e-01 1.4332585348235338e-01 
7.8202404809619208e-02 2.0444874290501223e+00 7.6048676076788435e-01 4.3771898182566443e-01 2.9744297884328402e-01 2.2114161473413238e-01 1.7425412749229124e-01 1.4318679358297115e-01 
8.0206312625250464e-02 2.0397210972181186e+00 7.5893925845923749e-01 4.3686929839715233e-01 2.9690025546845872e-01 2.2077973356458017e-01 1.7401779077300530e-01 1.4304811085625432e-01 
8.2210220440881721e-02 2.0349600937089445e+00 7.5739316712901172e-01 4.3602076926934302e-01 2.9635856159898522e-01 2.2041870556565701e-01 1.7378208050064689e-01 1.4290980331754879e-01 
8.4214128256512977e-02 2.0302044045015393e+00 7.5584848072326305e-01 4.3517338754798385e-01 2.9581789009869808e-01 2.2005852457896388e-01 1.7354699246041849e-01 1.4277186900045499e-01 
8.6218036072144233e-02 2.0254540155932066e+00 7.5430519321269007e-01 4.3432714638963715e-01 2.9527823389818370e-01 2.1969918450956846e-01 1.7331252248076198e-01 1.4263430595664969e-01 
8.8221943887775489e-02 2.0207089129994364e+00 7.5276329859242763e-01 4.3348203900117072e-01 2.9473958599399414e-01 2.1934067932520943e-01 1.7307866643283948e-01 1.4249711225570999e-01 
9.0225851703406745e-02 2.0159690827537289e+00 7.5122279088183674e-01 4.3263805863925425e-01 2.9420193944787387e-01 2.1898300305551102e-01 1.7284542023002078e-01 1.4236028598493949e-01 
9.2229759519038002e-02 2.0112345109074097e+00 7.4968366412429921e-01 4.3179519860986032e-01 2.9366528738599523e-01 2.1862614979121153e-01 1.7261277982738019e-01 1.4222382524919749e-01 
9.4233667334669258e-02 2.0065051835294510e+00 7.4814591238701056e-01 4.3095345226777276e-01 2.9312962299820700e-01 2.1827011368340357e-01 1.7238074122119945e-01 1.4208772817072929e-01 
9.6237575150300514e-02 2.0017810867062940e+00 7.4660952976077943e-01 4.3011281301610005e-01 2.9259493953729199e-01 2.1791488894278496e-01 1.7214930044847945e-01 1.4195199288899996e-01 
9.8241482965931770e-02 1.9970622065416654e+00 7.4507451035982053e-01 4.2927327430579448e-01 2.9206123031823733e-01 2.1756046983892302e-01 1.7191845358645860e-01 1.4181661756052916e-01 
1.0024539078156303e-01 1.9923485291563945e+00 7.4354084832155853e-01 4.2843482963517715e-01 2.9152848871751263e-01 2.1720685069952822e-01 1.7168819675213912e-01 1.4168160035872968e-01 
1.0224929859719428e-01 1.9876400406882369e+00 7.4200853780642329e-01 4.2759747254946762e-01 2.9099670817236045e-01 2.1685402590974120e-01 1.7145852610181953e-01 1.4154693947374641e-01 
1.0425320641282554e-01 1.9829367272916834e+00 7.4047757299765482e-01 4.2676119664032086e-01 2.9046588218009617e-01 2.1650198991142866e-01 1.7122943783063535e-01 1.4141263311229860e-01 
1.0625711422845679e-01 1.9782385751377862e+00 7.3894794810110442e-01 4.2592599554536681e-01 2.8993600429741728e-01 2.1615073720249126e-01 1.7100092817210616e-01 1.4127867949752371e-01 
1.0826102204408805e-01 1.9735455704139713e+00 7.3741965734503856e-01 4.2509186294775875e-01 2.8940706813972333e-01 2.1580026233618238e-01 1.7077299339768920e-01 1.4114507686882391e-01 
1.1026492985971931e-01 1.9688576993238525e+00 7.3589269497994414e-01 4.2425879257572274e-01 2.8887906738044467e-01 2.1545055992043585e-01 1.7054562981634028e-01 1.4101182348171365e-01 
1.1226883767535056e-01 1.9641749480870523e+00 7.3436705527833546e-01 4.2342677820211705e-01 2.8835199575038162e-01 2.1510162461720589e-01 1.7031883377408102e-01 1.4087891760767013e-01 
1.1427274549098182e-01 1.9594973029390124e+00 7.3284273253456156e-01 4.2259581364399151e-01 2.8782584703705177e-01 2.1475345114181496e-01 1.7009260165357235e-01 1.4074635753398543e-01 
1.1627665330661308e-01 1.9548247501308129e+00 7.3131972106461474e-01 4.2176589276215631e-01 2.8730061508404742e-01 2.1440603426231394e-01 1.6986692987369484e-01 1.4061414156362043e-01 
1.1828056112224433e-01 1.9501572759289818e+00 7.2979801520594068e-01 4.2093700946075313e-01 2.8677629379040137e-01 2.1405936879884940e-01 1.6964181488913466e-01 1.4048226801506106e-01 
1.2028446893787559e-01 1.9454948666153105e+00 7.2827760931724972e-01 4.2010915768683205e-01 2.8625287710996233e-01 2.1371344962304276e-01 1.6941725318997664e-01 1.4035073522217600e-01 
1.2228837675350684e-01 1.9408375084866711e+00 7.2675849777832968e-01 4.1928233142993349e-01 2.8573035905077793e-01 2.1336827165737726e-01 1.6919324130130253e-01 1.4021954153407648e-01 
1.2429228456913810e-01 1.9361851878548191e+00 7.2524067498985878e-01 4.1845652472167433e-01 2.8520873367448746e-01 2.1302382987459506e-01 1.6896977578279551e-01 1.4008868531497837e-01 
1.2629619238476936e-01 1.9315378910462151e+00 7.2372413537322067e-01 4.1763173163533907e-01 2.8468799509572268e-01 2.1268011929710301e-01 1.6874685322835098e-01 1.3995816494406507e-01 
1.2830010020040061e-01 1.9268956044018322e+00 7.2220887337031958e-01 4.1680794628547557e-01 2.8416813748151637e-01 2.1233713499638734e-01 1.6852447026569231e-01 1.3982797881535322e-01 
1.3030400801603187e-01 1.9222583142769640e+00 7.2069488344339772e-01 4.1598516282749548e-01 2.8364915505072030e-01 2.1199487209243753e-01 1.6830262355599318e-01 1.3969812533755974e-01 
1.3230791583166313e-01 1.9176260070410400e+00 7.1918216007485369e-01 4.1516337545727905e-01 2.8313104207342982e-01 2.1165332575317844e-01 1.6808130979350477e-01 1.3956860293397036e-01 
1.3431182364729438e-01 1.9129986690774314e+00 7.1767069776706016e-01 4.1434257841078459e-01 2.8261379287041771e-01 2.1131249119391063e-01 1.6786052570518892e-01 1.3943941004231086e-01 
1.3631573146292564e-01 1.9083762867832605e+00 7.1616049104218549e-01 4.1352276596366183e-01 2.8209740181257492e-01 2.1097236367676026e-01 1.6764026805035637e-01 1.3931054511461843e-01 
1.3831963927855689e-01 1.9037588465692090e+00 7.1465153444201390e-01 4.1270393243087050e-01 2.8158186332035950e-01 2.1063293851013543e-01 1.6742053362031087e-01 1.3918200661711669e-01 
1.4032354709418815e-01 1.8991463348593280e+00 7.1314382252776798e-01 4.1188607216630213e-01 2.8106717186325308e-01 2.1029421104819235e-01 1.6720131923799758e-01 1.3905379303009052e-01 
1.4232745490981941e-01 1.8945387380908398e+00 7.1163734987993188e-01 4.1106917956240702e-01 2.8055332195922439e-01 2.0995617669030811e-01 1.6698262175765796e-01 1.3892590284776388e-01 
1.4433136272545066e-01 1.8899360427139493e+00 7.1013211109807561e-01 4.1025324904982519e-01 2.8004030817420106e-01 2.0961883088056207e-01 1.6676443806448812e-01 1.3879833457817839e-01 
1.4633527054108192e-01 1.8853382351916448e+00 7.0862810080068084e-01 4.0943827509702047e-01 2.7952812512154701e-01 2.0928216910722464e-01 1.6654676507430391e-01 1.3867108674307413e-01 
1.4833917835671317e-01 1.8807453019995068e+00 7.0712531362496545e-01 4.0862425220992044e-01 2.7901676746154952e-01 2.0894618690225356e-01 1.6632959973320960e-01 1.3854415787777161e-01 
1.5034308617234443e-01 1.8761572296255085e+00 7.0562374422671281e-01 4.0781117493155877e-01 2.7850622990091056e-01 2.0861087984079776e-01 1.6611293901727173e-01 1.3841754653105556e-01 
1.5234699398797569e-01 1.8715740045698217e+00 7.0412338728009860e-01 4.0699903784172287e-01 2.7799650719224667e-01 2.0827624354070867e-01 1.6589677993219845e-01 1.3829125126506009e-01 
1.5435090180360694e-01 1.8669956133446184e+00 7.0262423747752056e-01 4.0618783555660343e-01 2.7748759413359558e-01 2.0794227366205825e-01 1.6568111951302225e-01 1.3816527065515549e-01 
1.5635480961923820e-01 1.8624220424738704e+00 7.0112628952942757e-01 4.0537756272845082e-01 2.7697948556792901e-01 2.0760896590666461e-01 1.6546595482378892e-01 1.3803960328983647e-01 
1.5835871743486946e-01 1.8578532784931543e+00 6.9962953816415241e-01 4.0456821404523274e-01 2.7647217638267219e-01 2.0727631601762428e-01 1.6525128295724922e-01 1.3791424777061181e-01 
1.6036262525050071e-01 1.8532893079494492e+00 6.9813397812774203e-01 4.0375978423029663e-01 2.7596566150923035e-01 2.0694431977885192e-01 1.6503710103455679e-01 1.3778920271189601e-01 
1.6236653306613197e-01 1.8487301174009343e+00 6.9663960418379078e-01 4.0295226804203577e-01 2.7545993592252127e-01 2.0661297301462567e-01 1.6482340620496916e-01 1.3766446674090135e-01 
1.6437044088176322e-01 1.8441756934167914e+00 6.9514641111327491e-01 4.0214566027355958e-01 2.7495499464051387e-01 2.0628227158914006e-01 1.6461019564555412e-01 1.3754003849753244e-01 
1.6637434869739448e-01 1.8396260225769996e+00 6.9365439371438553e-01 4.0133995575236581e-01 2.7445083272377357e-01 2.0595221140606565e-01 1.6439746656089937e-01 1.3741591663428157e-01 
1.6837825651302574e-01 1.8350810914721323e+00 6.9216354680236603e-01 4.0053514934001894e-01 2.7394744527501369e-01 2.0562278840811410e-01 1.6418521618282736e-01 1.3729209981612575e-01 
1.7038216432865699e-01 1.8305408867031558e+00 6.9067386520934637e-01 3.9973123593182991e-01 2.7344482743865234e-01 2.0529399857661029e-01 1.6397344177011350e-01 1.3716858672042490e-01 
1.7238607214428825e-01 1.8260053948812198e+00 6.8918534378418117e-01 3.9892821045653964e-01 2.7294297440037629e-01 2.0496583793107098e-01 1.6376214060820890e-01 1.3704537603682149e-01 
1.7438997995991951e-01 1.8214746026274553e+00 6.8769797739228944e-01 3.9812606787600835e-01 2.7244188138670972e-01 2.0463830252878859e-01 1.6355131000896717e-01 1.3692246646714179e-01 
1.7639388777555076e-01 1.8169484965727656e+00 6.8621176091548852e-01 3.9732480318490371e-01 2.7194154366458900e-01 2.0431138846442190e-01 1.6334094731037477e-01 1.3679985672529799e-01 
1.7839779559118202e-01 1.8124270633576205e+00 6.8472668925183977e-01 3.9652441141039807e-01 2.7144195654094411e-01 2.0398509186959254e-01 1.6313104987628563e-01 1.3667754553719189e-01 
1.8040170340681327e-01 1.8079102896318449e+00 6.8324275731548390e-01 3.9572488761186331e-01 2.7094311536228394e-01 2.0365940891248688e-01 1.6292161509616004e-01 1.3655553164062004e-01 
1.8240561122244453e-01 1.8033981620544122e+00 6.8175996003648442e-01 3.9492622688057372e-01 2.7044501551428879e-01 2.0333433579746452e-01 1.6271264038480610e-01 1.3643381378517977e-01 
1.8440951903807579e-01 1.7988906672932314e+00 6.8027829236066972e-01 3.9412842433940976e-01 2.6994765242140722e-01 2.0300986876467153e-01 1.6250412318212609e-01 1.3631239073217710e-01 
1.8641342685370704e-01 1.7943877920249340e+00 6.7879774924947556e-01 3.9333147514256422e-01 2.6945102154645917e-01 2.0268600408966017e-01 1.6229606095286578e-01 1.3619126125453485e-01 
1.8841733466933830e-01 1.7898895229346683e+00 6.7731832567978678e-01 3.9253537447525405e-01 2.6895511839024339e-01 2.0236273808301339e-01 1.6208845118636850e-01 1.3607042413670345e-01 
1.9042124248496956e-01 1.7853958467158766e+00 6.7584001664378535e-01 3.9174011755343352e-01 2.6845993849115118e-01 2.0204006708997505e-01 1.6188129139633084e-01 1.3594987817457174e-01 
1.9242515030060081e-01 1.7809067500700864e+00 6.7436281714879109e-01 3.9094569962351117e-01 2.6796547742478427e-01 2.0171798749008585e-01 1.6167457912056390e-01 1.3582962217537936e-01 
1.9442905811623207e-01 1.7764222197066919e+00 6.7288672221710988e-01 3.9015211596206889e-01 2.6747173080357839e-01 2.0139649569682397e-01 1.6146831192075692e-01 1.3570965495763082e-01 
1.9643296593186332e-01 1.7719422423427398e+00 6.7141172688587858e-01 3.8935936187558612e-01 2.6697869427643217e-01 2.0107558815725129e-01 1.6126248738224416e-01 1.3558997535101000e-01 
1.9843687374749458e-01 1.7674668047027056e+00 6.6993782620691433e-01 3.8856743270016403e-01 2.6648636352834026e-01 2.0075526135166441e-01 1.6105710311377638e-01 1.3547058219629624e-01 
2.0044078156312584e-01 1.7629958935182819e+00 6.6846501524655855e-01 3.8777632380125565e-01 2.6599473428003106e-01 2.0043551179325078e-01 1.6085215674729425e-01 1.3535147434528172e-01 
2.0244468937875709e-01 1.7585294955281545e+00 6.6699328908553024e-01 3.8698603057339709e-01 2.6550380228761089e-01 2.0011633602775022e-01 1.6064764593770572e-01 1.3523265066068968e-01 
2.0444859719438835e-01 1.7540675974777780e+00 6.6552264281876949e-01 3.8619654843994128e-01 2.6501356334221110e-01 1.9979773063312076e-01 1.6044356836266691e-01 1.3511411001609380e-01 
2.0645250501001960e-01 1.7496101861191586e+00 6.6405307155529192e-01 3.8540787285279715e-01 2.6452401326964103e-01 1.9947969221920980e-01 1.6023992172236545e-01 1.3499585129583888e-01 
2.0845641282565086e-01 1.7451572482106261e+00 6.6258457041803687e-01 3.8461999929216834e-01 2.6403514793004473e-01 1.9916221742742954e-01 1.6003670373930767e-01 1.3487787339496263e-01 
2.1046032064128212e-01 1.7407087705166098e+00 6.6111713454371823e-01 3.8383292326629692e-01 2.6354696321756316e-01 1.9884530293043731e-01 1.5983391215810849e-01 1.3476017521911832e-01 
2.1246422845691337e-01 1.7362647398074154e+00 6.5965075908267745e-01 3.8304664031120850e-01 2.6305945505999995e-01 1.9852894543182070e-01 1.5963154474528454e-01 1.3464275568449879e-01 
2.1446813627254463e-01 1.7318251428589917e+00 6.5818543919873396e-01 3.8226114599046179e-01 2.6257261941849253e-01 1.9821314166578716e-01 1.5942959928905040e-01 1.3452561371776131e-01 
2.1647204408817589e-01 1.7273899664527068e+00 6.5672117006903952e-01 3.8147643589489949e-01 2.6208645228718652e-01 1.9789788839685768e-01 1.5922807359911742e-01 1.3440874825595370e-01 
2.1847595190380714e-01 1.7229591973751153e+00 6.5525794688393124e-01 3.8069250564240081e-01 2.6160094969291592e-01 1.9758318241956549e-01 1.5902696550649609e-01 1.3429215824644136e-01 
2.2047985971943840e-01 1.7185328224177268e+00 6.5379576484678481e-01 3.7990935087763977e-01 2.6111610769488597e-01 1.9726902055815895e-01 1.5882627286330073e-01 1.3417584264683555e-01 
2.2248376753506965e-01 1.7141108283767748e+00 6.5233461917387092e-01 3.7912696727184347e-01 2.6063192238436106e-01 1.9695539966630832e-01 1.5862599354255760e-01 1.3405980042492222e-01 
2.2448767535070091e-01 1.7096932020529811e+00 6.5087450509420819e-01 3.7834535052255319e-01 2.6014838988435712e-01 1.9664231662681744e-01 1.5842612543801549e-01 1.3394403055859247e-01 
2.2649158316633217e-01 1.7052799302513193e+00 6.4941541784942025e-01 3.7756449635338968e-01 2.5966550634933738e-01 1.9632976835133914e-01 1.5822666646395883e-01 1.3382853203577375e-01 
2.2849549098196342e-01 1.7008709997807800e+00 6.4795735269359267e-01 3.7678440051381901e-01 2.5918326796491209e-01 1.9601775178009473e-01 1.5802761455502451e-01 1.3371330385436178e-01 
2.3049939879759468e-01 1.6964663974541325e+00 6.4650030489312749e-01 3.7600505877892193e-01 2.5870167094754393e-01 1.9570626388159798e-01 1.5782896766602034e-01 1.3359834502215417e-01 
2.3250330661322594e-01 1.6920661100876815e+00 6.4504426972660278e-01 3.7522646694916600e-01 2.5822071154425408e-01 1.9539530165238292e-01 1.5763072377174694e-01 1.3348365455678413e-01 
2.3450721442885719e-01 1.6876701245010299e+00 6.4358924248462968e-01 3.7444862085017894e-01 2.5774038603233579e-01 1.9508486211673512e-01 1.5743288086682203e-01 1.3336923148565583e-01 
2.3651112224448845e-01 1.6832784275168333e+00 6.4213521846970933e-01 3.7367151633252510e-01 2.5726069071906937e-01 1.9477494232642792e-01 1.5723543696550704e-01 1.3325507484588048e-01 
2.3851503006011970e-01 1.6788910059605566e+00 6.4068219299609486e-01 3.7289514927148537e-01 2.5678162194144205e-01 1.9446553936046126e-01 1.5703839010153722e-01 1.3314118368421357e-01 
2.4051893787575096e-01 1.6745078466602277e+00 6.3923016138964783e-01 3.7211951556683720e-01 2.5630317606587105e-01 1.9415665032480547e-01 1.5684173832795298e-01 1.3302755705699235e-01 
2.4252284569138222e-01 1.6701289364461906e+00 6.3777911898769923e-01 3.7134461114263839e-01 2.5582534948793068e-01 1.9384827235214794e-01 1.5664547971693515e-01 1.3291419403007537e-01 
2.4452675350701347e-01 1.6657542621508545e+00 6.3632906113890952e-01 3.7057043194701395e-01 2.5534813863208272e-01 1.9354040260164440e-01 1.5644961235964142e-01 1.3280109367878187e-01 
2.4653066132264473e-01 1.6613838106084478e+00 6.3487998320313033e-01 3.6979697395194200e-01 2.5487153995141171e-01 1.9323303825867241e-01 1.5625413436604629e-01 1.3268825508783291e-01 
2.4853456913827598e-01 1.6570175686547595e+00 6.3343188055126365e-01 3.6902423315304661e-01 2.5439554992736163e-01 1.9292617653459046e-01 1.5605904386478311e-01 1.3257567735129275e-01 
2.5053847695390724e-01 1.6526555231268878e+00 6.3198474856512432e-01 3.6825220556938920e-01 2.5392016506947740e-01 1.9261981466649855e-01 1.5586433900298818e-01 1.3246335957251171e-01 
2.5254238476953850e-01 1.6482976608629862e+00 6.3053858263730378e-01 3.6748088724326294e-01 2.5344538191515054e-01 1.9231394991700407e-01 1.5567001794614774e-01 1.3235130086406943e-01 
2.5454629258516975e-01 1.6439439687020050e+00 6.2909337817103017e-01 3.6671027423999053e-01 2.5297119702936655e-01 1.9200857957398976e-01 1.5547607887794673e-01 1.3223950034771942e-01 
2.5655020040080101e-01 1.6395944334834298e+00 6.2764913058003202e-01 3.6594036264772339e-01 2.5249760700445717e-01 1.9170370095038619e-01 1.5528252000012083e-01 1.3212795715433426e-01 
2.5855410821643227e-01 1.6352490420470225e+00 6.2620583528840157e-01 3.6517114857724220e-01 2.5202460845985514e-01 1.9139931138394692e-01 1.5508933953230947e-01 1.3201667042385165e-01 
2.6055801603206352e-01 1.6309077812325594e+00 6.2476348773045887e-01 3.6440262816176117e-01 2.5155219804185253e-01 1.9109540823702717e-01 1.5489653571191231e-01 1.3190563930522151e-01 
2.6256192384769478e-01 1.6265706378795655e+00 6.2332208335061523e-01 3.6363479755673284e-01 2.5108037242336279e-01 1.9079198889636612e-01 1.5470410679394750e-01 1.3179486295635373e-01 
2.6456583166332603e-01 1.6222375988270461e+00 6.2188161760323823e-01 3.6286765293965639e-01 2.5060912830368504e-01 1.9048905077287201e-01 1.5451205105091176e-01 1.3168434054406689e-01 
2.6656973947895729e-01 1.6179086509132217e+00 6.2044208595251515e-01 3.6210119050988687e-01 2.5013846240827264e-01 1.9018659130141072e-01 1.5432036677264319e-01 1.3157407124403783e-01 
2.6857364729458855e-01 1.6135837809752567e+00 6.1900348387232107e-01 3.6133540648844675e-01 2.4966837148850426e-01 1.8988460794059758e-01 1.5412905226618639e-01 1.3146405424075200e-01 
2.7057755511021980e-01 1.6092629758489843e+00 6.1756580684608009e-01 3.6057029711784039e-01 2.4919885232145830e-01 1.8958309817259242e-01 1.5393810585565895e-01 1.3135428872745469e-01 
2.7258146292585106e-01 1.6049462223686362e+00 6.1612905036663512e-01 3.5980585866186876e-01 2.4872990170969042e-01 1.8928205950289706e-01 1.5374752588212084e-01 1.3124477390610312e-01 
2.7458537074148232e-01 1.6006335073665652e+00 6.1469320993611221e-01 3.5904208740544818e-01 2.4826151648101430e-01 1.8898148946015692e-01 1.5355731070344542e-01 1.3113550898731904e-01 
2.7658927855711357e-01 1.5963248176729656e+00 6.1325828106578739e-01 3.5827897965442901e-01 2.4779369348828481e-01 1.8868138559596487e-01 1.5336745869419280e-01 1.3102649319034276e-01 
2.7859318637274483e-01 1.5920201401155933e+00 6.1182425927595241e-01 3.5751653173541781e-01 2.4732642960918522e-01 1.8838174548466849e-01 1.5317796824548521e-01 1.3091772574298724e-01 
2.8059709418837608e-01 1.5877194615194847e+00 6.1039114009578443e-01 3.5675473999560114e-01 2.4685972174601614e-01 1.8808256672318011e-01 1.5298883776488426e-01 1.3080920588159362e-01 
2.8260100200400734e-01 1.5834227687066698e+00 6.0895891906321065e-01 3.5599360080257042e-01 2.4639356682548894e-01 1.8778384693078970e-01 1.5280006567627016e-01 1.3070093285098722e-01 
2.8460490981963860e-01 1.5791300484958859e+00 6.0752759172477699e-01 3.5523311054414958e-01 2.4592796179852014e-01 1.8748558374898153e-01 1.5261165041972333e-01 1.3059290590443420e-01 
2.8660881763526985e-01 1.5748412877022919e+00 6.0609715363551775e-01 3.5447326562822429e-01 2.4546290364003068e-01 1.8718777484125210e-01 1.5242359045140771e-01 1.3048512430359963e-01 
2.8861272545090111e-01 1.5705564731371726e+00 6.0466760035882161e-01 3.5371406248257314e-01 2.4499838934874632e-01 1.8689041789293223e-01 1.5223588424345602e-01 1.3037758731850532e-01 
2.9061663326653236e-01 1.5662755916076465e+00 6.0323892746630037e-01 3.5295549755470029e-01 2.4453441594700226e-01 1.8659351061101195e-01 1.5204853028385659e-01 1.3027029422748956e-01 
2.9262054108216362e-01 1.5619986299163697e+00 6.0181113053765856e-01 3.5219756731167062e-01 2.4407098048054995e-01 1.8629705072396721e-01 1.5186152707634326e-01 1.3016324431716655e-01 
2.9462444889779488e-01 1.5577255748612420e+00 6.0038420516056290e-01 3.5144026823994562e-01 2.4360808001836592e-01 1.8600103598159032e-01 1.5167487314028580e-01 1.3005643688238766e-01 
2.9662835671342613e-01 1.5534564132350990e+00 5.9895814693050942e-01 3.5068359684522282e-01 2.4314571165246482e-01 1.8570546415482250e-01 1.5148856701058319e-01 1.2994987122620241e-01 
2.9863226452905739e-01 1.5491911318254139e+00 5.9753295145069518e-01 3.4992754965227502e-01 2.4268387249771453e-01 1.8541033303558968e-01 1.5130260723755803e-01 1.2984354665982087e-01 
3.0063617234468865e-01 1.5449297174139911e+00 5.9610861433188733e-01 3.4917212320479318e-01 2.4222255969165296e-01 1.8511564043664058e-01 1.5111699238685372e-01 1.2973746250257695e-01 
3.0264008016031990e-01 1.5406721567766586e+00 5.9468513119229194e-01 3.4841731406522836e-01 2.4176177039430974e-01 1.8482138419138730e-01 1.5093172103933242e-01 1.2963161808189158e-01 
3.0464398797595116e-01 1.5364184366829554e+00 5.9326249765742511e-01 3.4766311881463963e-01 2.4130150178802795e-01 1.8452756215374896e-01 1.5074679179097558e-01 1.2952601273323752e-01 
3.0664789579158241e-01 1.5321685438958221e+00 5.9184070935998312e-01 3.4690953405253905e-01 2.4084175107729111e-01 1.8423417219799804e-01 1.5056220325278613e-01 1.2942064580010451e-01 
3.0865180360721367e-01 1.5279224651712808e+00 5.9041976193971257e-01 3.4615655639674181e-01 2.4038251548855005e-01 1.8394121221860874e-01 1.5037795405069210e-01 1.2931551663396509e-01 
3.1065571142284493e-01 1.5236801872581218e+00 5.8899965104328267e-01 3.4540418248321614e-01 2.3992379227005506e-01 1.8364868013010799e-01 1.5019404282545243e-01 1.2921062459424140e-01 
3.1265961923847618e-01 1.5194416968975779e+00 5.8758037232415172e-01 3.4465240896593680e-01 2.3946557869168800e-01 1.8335657386692952e-01 1.5001046823256436e-01 1.2910596904827268e-01 
3.1466352705410744e-01 1.5152069808230024e+00 5.8616192144244428e-01 3.4390123251673710e-01 2.3900787204479942e-01 1.8306489138327006e-01 1.4982722894217268e-01 1.2900154937128283e-01 
3.1666743486973870e-01 1.5109760257595442e+00 5.8474429406481687e-01 3.4315064982516602e-01 2.3855066964204588e-01 1.8277363065294816e-01 1.4964432363898034e-01 1.2889736494635001e-01 
3.1867134268536995e-01 1.5067488184238165e+00 5.8332748586433225e-01 3.4240065759834559e-01 2.3809396881723197e-01 1.8248278966926484e-01 1.4946175102216114e-01 1.2879341516437562e-01 
3.2067525050100121e-01 1.5025253455235643e+00 5.8191149252033025e-01 3.4165125256082846e-01 2.3763776692515259e-01 1.8219236644486800e-01 1.4927950980527452e-01 1.2868969942405478e-01 
3.2267915831663246e-01 1.4983055937573315e+00 5.8049630971829846e-01 3.4090243145445970e-01 2.3718206134143982e-01 1.8190235901161786e-01 1.4909759871618072e-01 1.2858621713184717e-01 
3.2468306613226372e-01 1.4940895498141200e+00 5.7908193314974477e-01 3.4015419103823974e-01 2.3672684946241024e-01 1.8161276542045598e-01 1.4891601649695918e-01 1.2848296770194906e-01 
3.2668697394789498e-01 1.4898772003730496e+00 5.7766835851206932e-01 3.3940652808818522e-01 2.3627212870491651e-01 1.8132358374127558e-01 1.4873476190382756e-01 1.2837995055626528e-01 
3.2869088176352623e-01 1.4856685321030167e+00 5.7625558150843503e-01 3.3865943939719839e-01 2.3581789650619986e-01 1.8103481206279531e-01 1.4855383370706260e-01 1.2827716512438231e-01 
3.3069478957915749e-01 1.4814635316623421e+00 5.7484359784764105e-01 3.3791292177493043e-01 2.3536415032374577e-01 1.8074644849243432e-01 1.4837323069092337e-01 1.2817461084354248e-01 
3.3269869739478874e-01 1.4772621856984240e+00 5.7343240324399469e-01 3.3716697204765361e-01 2.3491088763514181e-01 1.8045849115619059e-01 1.4819295165357474e-01 1.2807228715861796e-01 
3.3470260521042000e-01 1.4730644808473830e+00 5.7202199341718230e-01 3.3642158705812786e-01 2.3445810593793806e-01 1.8017093819852112e-01 1.4801299540701413e-01 1.2797019352208641e-01 
3.3670651302605126e-01 1.4688704037337073e+00 5.7061236409214278e-01 3.3567676366547594e-01 2.3400580274950930e-01 1.7988378778222441e-01 1.4783336077699857e-01 1.2786832939400639e-01 
3.3871042084168251e-01 1.4646799409698883e+00 5.6920351099893896e-01 3.3493249874505465e-01 2.3355397560692001e-01 1.7959703808832503e-01 1.4765404660297382e-01 1.2776669424199408e-01 
3.4071432865731377e-01 1.4604930791560633e+00 5.6779542987263110e-01 3.3418878918833067e-01 2.3310262206679150e-01 1.7931068731596123e-01 1.4747505173800554e-01 1.2766528754120060e-01 
3.4271823647294503e-01 1.4563098048796419e+00 5.6638811645314779e-01 3.3344563190275645e-01 2.3265173970517183e-01 1.7902473368227409e-01 1.4729637504871118e-01 1.2756410877429017e-01 
3.4472214428857628e-01 1.4521301047149415e+00 5.6498156648515963e-01 3.3270302381164901e-01 2.3220132611740704e-01 1.7873917542229911e-01 1.4711801541519418e-01 1.2746315743141809e-01 
3.4672605210420754e-01 1.4479539652228102e+00 5.6357577571795059e-01 3.3196096185406926e-01 2.3175137891801517e-01 1.7845401078886003e-01 1.4693997173097928e-01 1.2736243301021055e-01 
3.4872995991983879e-01 1.4437813729502500e+00 5.6217073990529176e-01 3.3121944298470241e-01 2.3130189574056303e-01 1.7816923805246498e-01 1.4676224290295015e-01 1.2726193501574454e-01 
3.5073386773547005e-01 1.4396123144300350e+00 5.6076645480531317e-01 3.3047846417374177e-01 2.3085287423754436e-01 1.7788485550120492e-01 1.4658482785128713e-01 1.2716166296052833e-01 
3.5273777555110131e-01 1.4354467761803302e+00 5.5936291618037570e-01 3.2973802240677258e-01 2.3040431208026083e-01 1.7760086144065357e-01 1.4640772550940828e-01 1.2706161636448307e-01 
3.5474168336673256e-01 1.4312847447043002e+00 5.5796011979694460e-01 3.2899811468465601e-01 2.2995620695870475e-01 1.7731725419377090e-01 1.4623093482391053e-01 1.2696179475492450e-01 
3.5674559118236382e-01 1.4271262064897154e+00 5.5655806142546183e-01 3.2825873802342004e-01 2.2950855658144489e-01 1.7703403210080729e-01 1.4605445475451345e-01 1.2686219766654597e-01 
3.5874949899799508e-01 1.4229711480085596e+00 5.5515673684021771e-01 3.2751988945414429e-01 2.2906135867551330e-01 1.7675119351921087e-01 1.4587828427400371e-01 1.2676282464140162e-01 
3.6075340681362633e-01 1.4188195557166285e+00 5.5375614181922461e-01 3.2678156602285324e-01 2.2861461098629543e-01 1.7646873682353659e-01 1.4570242236818162e-01 1.2666367522889041e-01 
3.6275731462925759e-01 1.4146714160531269e+00 5.5235627214408900e-01 3.2604376479040548e-01 2.2816831127742188e-01 1.7618666040535738e-01 1.4552686803580905e-01 1.2656474898574110e-01 
3.6476122244488884e-01 1.4105267154402559e+00 5.5095712359988269e-01 3.2530648283238917e-01 2.2772245733066218e-01 1.7590496267317818e-01 1.4535162028855880e-01 1.2646604547599738e-01 
3.6676513026052010e-01 1.4063854402828089e+00 5.4955869197501739e-01 3.2456971723901579e-01 2.2727704694582157e-01 1.7562364205235070e-01 1.4517667815096535e-01 1.2636756427100396e-01 
3.6876903807615136e-01 1.4022475769677489e+00 5.4816097306111566e-01 3.2383346511501582e-01 2.2683207794063859e-01 1.7534269698499200e-01 1.4500204066037789e-01 1.2626930494939359e-01 
3.7077294589178261e-01 1.3981131118637906e+00 5.4676396265288219e-01 3.2309772357953781e-01 2.2638754815068682e-01 1.7506212592990353e-01 1.4482770686691360e-01 1.2617126709707413e-01 
3.7277685370741387e-01 1.3939820313209736e+00 5.4536765654797958e-01 3.2236248976604681e-01 2.2594345542927649e-01 1.7478192736249371e-01 1.4465367583341343e-01 1.2607345030721712e-01 
3.7478076152304513e-01 1.3898543216702399e+00 5.4397205054689612e-01 3.2162776082222488e-01 2.2549979764736014e-01 1.7450209977470166e-01 1.4447994663539931e-01 1.2597585418024604e-01 
3.7678466933867638e-01 1.3857299692229896e+00 5.4257714045282057e-01 3.2089353390987474e-01 2.2505657269343943e-01 1.7422264167492335e-01 1.4430651836103228e-01 1.2587847832382620e-01 
3.7878857715430764e-01 1.3816089602706523e+00 5.4118292207151453e-01 3.2015980620482098e-01 2.2461377847347441e-01 1.7394355158794003e-01 1.4413339011107260e-01 1.2578132235285464e-01 
3.8079248496993889e-01 1.3774912810842384e+00 5.3978939121118052e-01 3.1942657489681858e-01 2.2417141291079484e-01 1.7366482805484867e-01 1.4396056099884144e-01 1.2568438588945080e-01 
3.8279639278557015e-01 1.3733769179138968e+00 5.3839654368234069e-01 3.1869383718945676e-01 2.2372947394601397e-01 1.7338646963299409e-01 1.4378803015018360e-01 1.2558766856294853e-01 
3.8480030060120141e-01 1.3692658569884577e+00 5.3700437529770018e-01 3.1796159030006887e-01 2.2328795953694408e-01 1.7310847489590372e-01 1.4361579670343197e-01 1.2549117000988780e-01 
3.8680420841683266e-01 1.3651580845149800e+00 5.3561288187202605e-01 3.1722983145964190e-01 2.2284686765851425e-01 1.7283084243322411e-01 1.4344385980937407e-01 1.2539488987400768e-01 
3.8880811623246392e-01 1.3610535866782887e+00 5.3422205922201449e-01 3.1649855791272691e-01 2.2240619630269043e-01 1.7255357085065998e-01 1.4327221863121889e-01 1.2529882780623983e-01 
3.9081202404809517e-01 1.3569523496405047e+00 5.3283190316616358e-01 3.1576776691735303e-01 2.2196594347839807e-01 1.7227665876991458e-01 1.4310087234456612e-01 1.2520298346470285e-01 
3.9281593186372643e-01 1.3528543595405753e+00 5.3144240952464372e-01 3.1503745574494108e-01 2.2152610721144533e-01 1.7200010482863276e-01 1.4292982013737673e-01 1.2510735651469701e-01 
3.9481983967935769e-01 1.3487596024938040e+00 5.3005357411917009e-01 3.1430762168021931e-01 2.2108668554445080e-01 1.7172390768034618e-01 1.4275906120994514e-01 1.2501194662869999e-01 
3.9682374749498894e-01 1.3446680645913562e+00 5.2866539277287194e-01 3.1357826202114070e-01 2.2064767653677125e-01 1.7144806599441986e-01 1.4258859477487210e-01 1.2491675348636304e-01 
3.9882765531062020e-01 1.3405797318997774e+00 5.2727786131016574e-01 3.1284937407880264e-01 2.2020907826443303e-01 1.7117257845600212e-01 1.4241842005704045e-01 1.2482177677450775e-01 
4.0083156312625146e-01 1.3364945904605094e+00 5.2589097555662279e-01 3.1212095517736571e-01 2.1977088882006443e-01 1.7089744376597479e-01 1.4224853629359085e-01 1.2472701618712428e-01 
4.0283547094188271e-01 1.3324126262893725e+00 5.2450473133884201e-01 3.1139300265397740e-01 2.1933310631283115e-01 1.7062266064090773e-01 1.4207894273390076e-01 1.2463247142536900e-01 
4.0483937875751397e-01 1.3283338253760817e+00 5.2311912448431985e-01 3.1066551385869379e-01 2.1889572886837380e-01 1.7034822781301301e-01 1.4190963863956294e-01 1.2453814219756396e-01 
4.0684328657314522e-01 1.3242581736837218e+00 5.2173415082132069e-01 3.0993848615440661e-01 2.1845875462874711e-01 1.7007414403010362e-01 1.4174062328436729e-01 1.2444402821919660e-01 
4.0884719438877648e-01 1.3201856571482460e+00 5.2034980617874438e-01 3.0921191691676791e-01 2.1802218175236143e-01 1.6980040805555224e-01 1.4157189595428302e-01 1.2435012921291984e-01 
4.1085110220440774e-01 1.3161162616779414e+00 5.1896608638599984e-01 3.0848580353411914e-01 2.1758600841392722e-01 1.6952701866825365e-01 1.4140345594744280e-01 1.2425644490855366e-01 
4.1285501002003899e-01 1.3120499731529147e+00 5.1758298727287255e-01 3.0776014340742086e-01 2.1715023280440032e-01 1.6925397466258810e-01 1.4123530257412836e-01 1.2416297504308670e-01 
4.1485891783567025e-01 1.3079867774245473e+00 5.1620050466938860e-01 3.0703493395018394e-01 2.1671485313093106e-01 1.6898127484838737e-01 1.4106743515675796e-01 1.2406971936067869e-01 
4.1686282565130151e-01 1.3039266603149662e+00 5.1481863440570519e-01 3.0631017258840204e-01 2.1627986761681409e-01 1.6870891805090335e-01 1.4089985302987459e-01 1.2397667761266407e-01 
4.1886673346693276e-01 1.2998696076164933e+00 5.1343737231195474e-01 3.0558585676048700e-01 2.1584527450144161e-01 1.6843690311077780e-01 1.4073255554013647e-01 1.2388384955755560e-01 
4.2087064128256402e-01 1.2958156050910941e+00 5.1205671421811183e-01 3.0486198391720404e-01 2.1541107204025797e-01 1.6816522888401522e-01 1.4056554204630883e-01 1.2379123496104920e-01 
4.2287454909819527e-01 1.2917646384698243e+00 5.1067665595388889e-01 3.0413855152161073e-01 2.1497725850471716e-01 1.6789389424195675e-01 1.4039881191925732e-01 1.2369883359602937e-01 
4.2487845691382653e-01 1.2877166934522559e+00 5.0929719334858381e-01 3.0341555704899442e-01 2.1454383218224257e-01 1.6762289807125741e-01 1.4023236454194263e-01 1.2360664524257535e-01 
4.2688236472945779e-01 1.2836717557059156e+00 5.0791832223095279e-01 3.0269299798681559e-01 2.1411079137618813e-01 1.6735223927386492e-01 1.4006619930941741e-01 1.2351466968796784e-01 
4.2888627254508904e-01 1.2796298108657023e+00 5.0654003842907980e-01 3.0197087183464882e-01 2.1367813440580272e-01 1.6708191676700085e-01 1.3990031562882393e-01 1.2342290672669674e-01 
4.3089018036072030e-01 1.2755908445333011e+00 5.0516233777024233e-01 3.0124917610412794e-01 2.1324585960619688e-01 1.6681192948314388e-01 1.3973471291939379e-01 1.2333135616046949e-01 
4.3289408817635155e-01 1.2715548422765939e+00 5.0378521608077986e-01 3.0052790831889237e-01 2.1281396532831123e-01 1.6654227637001498e-01 1.3956939061244955e-01 1.2324001779821987e-01 
4.3489799599198281e-01 1.2675217896290558e+00 5.0240866918596161e-01 2.9980706601453422e-01 2.1238244993888727e-01 1.6627295639056594e-01 1.3940434815140709e-01 1.2314889145611832e-01 
4.3690190380761407e-01 1.2634916720891589e+00 5.0103269290985308e-01 2.9908664673854829e-01 2.1195131182044138e-01 1.6600396852296820e-01 1.3923958499178041e-01 1.2305797695758204e-01 
4.3890581162324532e-01 1.2594644751197459e+00 4.9965728307518331e-01 2.9836664805028396e-01 2.1152054937124012e-01 1.6573531176060632e-01 1.3907510060118766e-01 1.2296727413328652e-01 
4.4090971943887658e-01 1.2554401841474168e+00 4.9828243550321039e-01 2.9764706752089720e-01 2.1109016100527905e-01 1.6546698511207134e-01 1.3891089445935859e-01 1.2287678282117767e-01 
4.4291362725450784e-01 1.2514187845618987e+00 4.9690814601358885e-01 2.9692790273330588e-01 2.1066014515226267e-01 1.6519898760115839e-01 1.3874696605814449e-01 1.2278650286648453e-01 
4.4491753507013909e-01 1.2474002617154101e+00 4.9553441042423640e-01 2.9620915128214631e-01 2.1023050025758788e-01 1.6493131826686552e-01 1.3858331490152878e-01 1.2269643412173295e-01 
4.4692144288577035e-01 1.2433846009220135e+00 4.9416122455119754e-01 2.9549081077373263e-01 2.0980122478232913e-01 1.6466397616339482e-01 1.3841994050563991e-01 1.2260657644676007e-01 
4.4892535070140160e-01 1.2393717874569643e+00 4.9278858420851157e-01 2.9477287882601561e-01 2.0937231720322755e-01 1.6439696036015664e-01 1.3825684239876565e-01 1.2251692970872934e-01 
4.5092925851703286e-01 1.2353618065560532e+00 4.9141648520807635e-01 2.9405535306854647e-01 2.0894377601267944e-01 1.6413026994177538e-01 1.3809402012136943e-01 1.2242749378214661e-01 
4.5293316633266412e-01 1.2313546434149334e+00 4.9004492335951438e-01 2.9333823114244001e-01 2.0851559971873157e-01 1.6386390400809817e-01 1.3793147322610796e-01 1.2233826854887685e-01 
4.5493707414829537e-01 1.2273502831884444e+00 4.8867389447003706e-01 2.9262151070034093e-01 2.0808778684507537e-01 1.6359786167420567e-01 1.3776920127785097e-01 1.2224925389816171e-01 
4.5694098196392663e-01 1.2233487109899284e+00 4.8730339434431097e-01 2.9190518940639193e-01 2.0766033593104541e-01 1.6333214207042521e-01 1.3760720385370226e-01 1.2216044972663787e-01 
4.5894488977955789e-01 1.2193499118905331e+00 4.8593341878431767e-01 2.9118926493620406e-01 2.0723324553162051e-01 1.6306674434234719e-01 1.3744548054302280e-01 1.2207185593835614e-01 
4.6094879759518914e-01 1.2153538709185070e+00 4.8456396358922482e-01 2.9047373497682771e-01 2.0680651421742718e-01 1.6280166765084247e-01 1.3728403094745595e-01 1.2198347244480169e-01 
4.6295270541082040e-01 1.2113605730584938e+00 4.8319502455524416e-01 2.8975859722672775e-01 2.0638014057474521e-01 1.6253691117208383e-01 1.3712285468095339e-01 1.2189529916491471e-01 
4.6495661322645165e-01 1.2073700032508017e+00 4.8182659747549755e-01 2.8904384939575906e-01 2.0595412320551751e-01 1.6227247409756881e-01 1.3696195136980416e-01 1.2180733602511196e-01 
4.6696052104208291e-01 1.2033821463906789e+00 4.8045867813988080e-01 2.8832948920514467e-01 2.0552846072736070e-01 1.6200835563414576e-01 1.3680132065266465e-01 1.2171958295930947e-01 
4.6896442885771417e-01 1.1993969873275692e+00 4.7909126233492588e-01 2.8761551438745686e-01 2.0510315177358038e-01 1.6174455500404206e-01 1.3664096218059071e-01 1.2163203990894590e-01 
4.7096833667334542e-01 1.1954145108643632e+00 4.7772434584366369e-01 2.8690192268659814e-01 2.0467819499318743e-01 1.6148107144489543e-01 1.3648087561707170e-01 1.2154470682300643e-01 
4.7297224448897668e-01 1.1914347017566420e+00 4.7635792444548891e-01 2.8618871185778738e-01 2.0425358905091931e-01 1.6121790420978713e-01 1.3632106063806623e-01 1.2145758365804833e-01 
4.7497615230460793e-01 1.1874575447118996e+00 4.7499199391601804e-01 2.8547587966754656e-01 2.0382933262726138e-01 1.6095505256727888e-01 1.3616151693204009e-01 1.2137067037822642e-01 
4.7698006012023919e-01 1.1834830243887684e+00 4.7362655002695742e-01 2.8476342389368908e-01 2.0340542441847420e-01 1.6069251580145125e-01 1.3600224420000573e-01 1.2128396695532018e-01 
4.7898396793587045e-01 1.1795111253962260e+00 4.7226158854596045e-01 2.8405134232531182e-01 2.0298186313662145e-01 1.6043029321194593e-01 1.3584324215556393e-01 1.2119747336876138e-01 
4.8098787575150170e-01 1.1755418322927926e+00 4.7089710523649225e-01 2.8333963276278945e-01 2.0255864750960245e-01 1.6016838411400997e-01 1.3568451052494768e-01 1.2111118960566272e-01 
4.8299178356713296e-01 1.1715751295857244e+00 4.6953309585768915e-01 2.8262829301776998e-01 2.0213577628118651e-01 1.5990678783854337e-01 1.3552604904706747e-01 1.2102511566084724e-01 
4.8499569138276422e-01 1.1676110017301824e+00 4.6816955616422151e-01 2.8191732091317362e-01 2.0171324821105130e-01 1.5964550373214900e-01 1.3536785747355878e-01 1.2093925153687897e-01 
4.8699959919839547e-01 1.1636494331284100e+00 4.6680648190615681e-01 2.8120671428319383e-01 2.0129106207482395e-01 1.5938453115718598e-01 1.3520993556883232e-01 1.2085359724409409e-01 
4.8900350701402673e-01 1.1596904081288706e+00 4.6544386882881511e-01 2.8049647097330244e-01 2.0086921666412524e-01 1.5912386949182558e-01 1.3505228311012521e-01 1.2076815280063334e-01 
4.9100741482965798e-01 1.1557339110254092e+00 4.6408171267263582e-01 2.7978658884025287e-01 2.0044771078661722e-01 1.5886351813010993e-01 1.3489489988755501e-01 1.2068291823247519e-01 
4.9301132264528924e-01 1.1517799260563704e+00 4.6272000917303496e-01 2.7907706575209285e-01 2.0002654326605471e-01 1.5860347648201453e-01 1.3473778570417555e-01 1.2059789357347023e-01 
4.9501523046092050e-01 1.1478284374037220e+00 4.6135875406026644e-01 2.7836789958817237e-01 1.9960571294233875e-01 1.5834374397351283e-01 1.3458094037603544e-01 1.2051307886537611e-01 
4.9701913827655175e-01 1.1438794291921630e+00 4.5999794305928376e-01 2.7765908823916080e-01 1.9918521867157496e-01 1.5808432004664466e-01 1.3442436373223765e-01 1.2042847415789379e-01 
4.9902304609218301e-01 1.1399328854882158e+00 4.5863757188959781e-01 2.7695062960706235e-01 1.9876505932613381e-01 1.5782520415958712e-01 1.3426805561500257e-01 1.2034407950870488e-01 
5.0102695390781427e-01 1.1359887902993091e+00 4.5727763626514001e-01 2.7624252160523716e-01 1.9834523379471689e-01 1.5756639578672973e-01 1.3411201587973251e-01 1.2025989498350931e-01 
5.0303086172344558e-01 1.1320471275728499e+00 4.5591813189411956e-01 2.7553476215842221e-01 1.9792574098242327e-01 1.5730789441875159e-01 1.3395624439507856e-01 1.2017592065606506e-01 
5.0503476953907689e-01 1.1281078811952721e+00 4.5455905447888489e-01 2.7482734920276003e-01 1.9750657981082304e-01 1.5704969956270240e-01 1.3380074104301015e-01 1.2009215660822797e-01 
5.0703867735470820e-01 1.1241710349910878e+00 4.5320039971578346e-01 2.7412028068582511e-01 1.9708774921803215e-01 1.5679181074208720e-01 1.3364550571888659e-01 1.2000860292999307e-01 
5.0904258517033951e-01 1.1202365727219115e+00 4.5184216329502136e-01 2.7341355456665689e-01 1.9666924815879192e-01 1.5653422749695403e-01 1.3349053833153077e-01 1.1992525971953681e-01 
5.1104649298597082e-01 1.1163044780854758e+00 4.5048434090052364e-01 2.7270716881579510e-01 1.9625107560455271e-01 1.5627694938398459e-01 1.3333583880330607e-01 1.1984212708326064e-01 
5.1305040080160214e-01 1.1123747347146309e+00 4.4912692820979250e-01 2.7200112141531646e-01 1.9583323054356080e-01 1.5601997597658984e-01 1.3318140707019466e-01 1.1975920513583492e-01 
5.1505430861723345e-01 1.1084473261763317e+00 4.4776992089376932e-01 2.7129541035887883e-01 1.9541571198094998e-01 1.5576330686500797e-01 1.3302724308187933e-01 1.1967649400024501e-01 
5.1705821643286476e-01 1.1045222359706177e+00 4.4641331461669354e-01 2.7059003365176454e-01 1.9499851893883660e-01 1.5550694165640599e-01 1.3287334680182691e-01 1.1959399380783750e-01 
5.1906212424849607e-01 1.1005994475295553e+00 4.4505710503596141e-01 2.6988498931092858e-01 1.9458165045641920e-01 1.5525087997498607e-01 1.3271971820737469e-01 1.1951170469836798e-01 
5.2106603206412738e-01 1.0966789442161933e+00 4.4370128780198753e-01 2.6918027536505196e-01 1.9416510559008238e-01 1.5499512146209440e-01 1.3256635728981989e-01 1.1942962682005008e-01 
5.2306993987975869e-01 1.0927607093234804e+00 4.4234585855806441e-01 2.6847588985459703e-01 1.9374888341350482e-01 1.5473966577633488e-01 1.3241326405451043e-01 1.1934776032960540e-01 
5.2507384769539001e-01 1.0888447260731791e+00 4.4099081294022185e-01 2.6777183083186490e-01 1.9333298301777152e-01 1.5448451259368592e-01 1.3226043852093991e-01 1.1926610539231430e-01 
5.2707775551102132e-01 1.0849309776147651e+00 4.3963614657708910e-01 2.6706809636106127e-01 1.9291740351149136e-01 1.5422966160762200e-01 1.3210788072284441e-01 1.1918466218206913e-01 
5.2908166332665263e-01 1.0810194470242964e+00 4.3828185508975326e-01 2.6636468451836226e-01 1.9250214402091853e-01 1.5397511252923840e-01 1.3195559070830212e-01 1.1910343088142682e-01 
5.3108557114228394e-01 1.0771101173032773e+00 4.3692793409162195e-01 2.6566159339198503e-01 1.9208720369007817e-01 1.5372086508738111e-01 1.3180356853983616e-01 1.1902241168166415e-01 
5.3308947895791525e-01 1.0732029713775086e+00 4.3557437918828268e-01 2.6495882108226287e-01 1.9167258168089890e-01 1.5346691902877976e-01 1.3165181429451980e-01 1.1894160478283358e-01 
5.3509338677354656e-01 1.0692979920959111e+00 4.3422118597736553e-01 2.6425636570172556e-01 1.9125827717334742e-01 1.5321327411818603e-01 1.3150032806408501e-01 1.1886101039382081e-01 
5.3709729458917788e-01 1.0653951622293318e+00 4.3286835004840429e-01 2.6355422537518125e-01 1.9084428936557055e-01 1.5295993013851530e-01 1.3134910995503377e-01 1.1878062873240254e-01 
5.3910120240480919e-01 1.0614944644693387e+00 4.3151586698269800e-01 2.6285239823980638e-01 1.9043061747404100e-01 1.5270688689099396e-01 1.3119816008875215e-01 1.1870046002530706e-01 
5.4110511022044050e-01 1.0575958814269963e+00 4.3016373235317396e-01 2.6215088244523616e-01 1.9001726073370862e-01 1.5245414419530989e-01 1.3104747860162799e-01 1.1862050450827449e-01 
5.4310901803607181e-01 1.0536993956316159e+00 4.2881194172425124e-01 2.6144967615366232e-01 1.8960421839815744e-01 1.5220170188976881e-01 1.3089706564517140e-01 1.1854076242612008e-01 
5.4511292585170312e-01 1.0498049895294903e+00 4.2746049065170272e-01 2.6074877753993542e-01 1.8919148973976771e-01 1.5194955983145481e-01 1.3074692138613811e-01 1.1846123403279700e-01 
5.4711683366733443e-01 1.0459126454826142e+00 4.2610937468252019e-01 2.6004818479167147e-01 1.8877907404988400e-01 1.5169771789639527e-01 1.3059704600665681e-01 1.1838191959146210e-01 
5.4912074148296575e-01 1.0420223457673790e+00 4.2475858935477773e-01 2.5934789610936260e-01 1.8836697063898813e-01 1.5144617597973212e-01 1.3044743970435899e-01 1.1830281937454205e-01 
5.5112464929859706e-01 1.0381340725732426e+00 4.2340813019749940e-01 2.5864790970649482e-01 1.8795517883687909e-01 1.5119493399589626e-01 1.3029810269251291e-01 1.1822393366380106e-01 
5.5312855711422837e-01 1.0342478080013962e+00 4.2205799273052308e-01 2.5794822380966992e-01 1.8754369799285811e-01 1.5094399187878849e-01 1.3014903520016000e-01 1.1814526275041039e-01 
5.5513246492985968e-01 1.0303635340633868e+00 4.2070817246436748e-01 2.5724883665873244e-01 1.8713252747592046e-01 1.5069334958196540e-01 1.3000023747225564e-01 1.1806680693501899e-01 
5.5713637274549099e-01 1.0264812326797388e+00 4.1935866490010082e-01 2.5654974650690349e-01 1.8672166667495285e-01 1.5044300707883002e-01 1.2985170976981336e-01 1.1798856652782548e-01 
5.5914028056112230e-01 1.0226008856785396e+00 4.1800946552920798e-01 2.5585095162091853e-01 1.8631111499893804e-01 1.5019296436282889e-01 1.2970345237005196e-01 1.1791054184865192e-01 
5.6114418837675362e-01 1.0187224747940111e+00 4.1666056983346328e-01 2.5515245028117278e-01 1.8590087187716514e-01 1.4994322144765390e-01 1.2955546556654693e-01 1.1783273322701897e-01 
5.6314809619238493e-01 1.0148459816650552e+00 4.1531197328479663e-01 2.5445424078187162e-01 1.8549093675944744e-01 1.4969377836745015e-01 1.2940774966938565e-01 1.1775514100222233e-01 
5.6515200400801624e-01 1.0109713878337752e+00 4.1396367134516826e-01 2.5375632143118670e-01 1.8508130911634696e-01 1.4944463517702997e-01 1.2926030500532601e-01 1.1767776552341130e-01 
5.6715591182364755e-01 1.0070986747439776e+00 4.1261565946644180e-01 2.5305869055142072e-01 1.8467198843940583e-01 1.4919579195209223e-01 1.2911313191795917e-01 1.1760060714966823e-01 
5.6915981963927886e-01 1.0032278237396450e+00 4.1126793309025733e-01 2.5236134647917563e-01 1.8426297424138458e-01 1.4894724878944868e-01 1.2896623076787642e-01 1.1752366625009011e-01 
5.7116372745491018e-01 9.9935881606338817e-01 4.0992048764790795e-01 2.5166428756552955e-01 1.8385426605650942e-01 1.4869900580725515e-01 1.2881960193283976e-01 1.1744694320387145e-01 
5.7316763527054149e-01 9.9549163285486952e-01 4.0857331856021678e-01 2.5096751217622143e-01 1.8344586344072511e-01 1.4845106314525100e-01 1.2867324580795675e-01 1.1737043840038909e-01 
5.7517154308617280e-01 9.9162625514920677e-01 4.0722642123741631e-01 2.5027101869183899e-01 1.8303776597195706e-01 1.4820342096500336e-01 1.2852716280586002e-01 1.1729415223928846e-01 
5.7717545090180411e-01 9.8776266387534162e-01 4.0587979107902866e-01 2.4957480550801961e-01 1.8262997325038047e-01 1.4795607945015879e-01 1.2838135335688997e-01 1.1721808513057147e-01 
5.7917935871743542e-01 9.8390083985439203e-01 4.0453342347374854e-01 2.4887887103565381e-01 1.8222248489869913e-01 1.4770903880670247e-01 1.2823581790928326e-01 1.1714223749468658e-01 
5.8118326653306673e-01 9.8004076379796479e-01 4.0318731379932599e-01 2.4818321370109933e-01 1.8181530056243098e-01 1.4746229926322277e-01 1.2809055692936466e-01 1.1706660976262026e-01 
5.8318717434869805e-01 9.7618241630645974e-01 4.0184145742245408e-01 2.4748783194640217e-01 1.8140841991020351e-01 1.4721586107118476e-01 1.2794557090174433e-01 1.1699120237599010e-01 
5.8519108216432936e-01 9.7232577786731988e-01 4.0049584969865915e-01 2.4679272422952636e-01 1.8100184263405728e-01 1.4696972450520973e-01 1.2780086032951862e-01 1.1691601578714018e-01 
5.8719498997996067e-01 9.6847082885327462e-01 3.9915048597218744e-01 2.4609788902459157e-01 1.8059556844975932e-01 1.4672388986336252e-01 1.2765642573447730e-01 1.1684105045923811e-01 
5.8919889779559198e-01 9.6461754952054646e-01 3.9780536157590252e-01 2.4540332482212099e-01 1.8018959709712534e-01 1.4647835746744772e-01 1.2751226765731380e-01 1.1676630686637375e-01 
5.9120280561122329e-01 9.6076592000701866e-01 3.9646047183117855e-01 2.4470903012929537e-01 1.7978392834035173e-01 1.4623312766331129e-01 1.2736838665784228e-01 1.1669178549366012e-01 
5.9320671342685460e-01 9.5691592033038864e-01 3.9511581204780166e-01 2.4401500347022018e-01 1.7937856196835725e-01 1.4598820082115352e-01 1.2722478331521800e-01 1.1661748683733607e-01 
5.9521062124248592e-01 9.5306753038627645e-01 3.9377137752386848e-01 2.4332124338619895e-01 1.7897349779513577e-01 1.4574357733584684e-01 1.2708145822816430e-01 1.1654341140487118e-01 
5.9721452905811723e-01 9.4922072994630347e-01 3.9242716354569274e-01 2.4262774843601873e-01 1.7856873566011766e-01 1.4549925762726479e-01 1.2693841201520403e-01 1.1646955971507222e-01 
5.9921843687374854e-01 9.4537549865615156e-01 3.9108316538771382e-01 2.4193451719624467e-01 1.7816427542854421e-01 1.4525524214061863e-01 1.2679564531489690e-01 1.1639593229819226e-01 
6.0122234468937985e-01 9.4153181603356584e-01 3.8973937831240585e-01 2.4124154826152427e-01 1.7776011699185068e-01 1.4501153134680234e-01 1.2665315878608197e-01 1.1632252969604120e-01 
6.0322625250501116e-01 9.3768966146634425e-01 3.8839579757019577e-01 2.4054884024490675e-01 1.7735626026806289e-01 1.4476812574274789e-01 1.2651095310812602e-01 1.1624935246209929e-01 
6.0523016032064247e-01 9.3384901421028110e-01 3.8705241839937810e-01 2.3985639177816653e-01 1.7695270520220349e-01 1.4452502585178936e-01 1.2636902898117774e-01 1.1617640116163157e-01 
6.0723406813627379e-01 9.3000985338707831e-01 3.8570923602604335e-01 2.3916420151214487e-01 1.7654945176671202e-01 1.4428223222403599e-01 1.2622738712642778e-01 1.1610367637180591e-01 
6.0923797595190510e-01 9.2617215798222063e-01 3.8436624566399941e-01 2.3847226811710007e-01 1.7614649996187570e-01 1.4403974543675638e-01 1.2608602828637486e-01 1.1603117868181222e-01 
6.1124188376753641e-01 9.2233590684281164e-01 3.8302344251470749e-01 2.3778059028307080e-01 1.7574384981627389e-01 1.4379756609477209e-01 1.2594495322509774e-01 1.1595890869298432e-01 
6.1324579158316772e-01 9.1850107867537811e-01 3.8168082176721718e-01 2.3708916672025124e-01 1.7534150138723531e-01 1.4355569483086172e-01 1.2580416272853448e-01 1.1588686701892438e-01 
6.1524969939879903e-01 9.1466765204362754e-01 3.8033837859810660e-01 2.3639799615938090e-01 1.7493945476130868e-01 1.4331413230617548e-01 1.2566365760476669e-01 1.1581505428562920e-01 
6.1725360721443034e-01 9.1083560536616870e-01 3.7899610817143159e-01 2.3570707735214777e-01 1.7453771005474714e-01 1.4307287921066067e-01 1.2552343868431198e-01 1.1574347113161924e-01 
6.1925751503006166e-01 9.0700491691419849e-01 3.7765400563867574e-01 2.3501640907160312e-01 1.7413626741400670e-01 1.4283193626349933e-01 1.2538350682042201e-01 1.1567211820807016e-01 
6.2126142284569297e-01 9.0317556480913819e-01 3.7631206613871088e-01 2.3432599011259397e-01 1.7373512701625976e-01 1.4259130421355590e-01 1.2524386288938802e-01 1.1560099617894637e-01 
6.2326533066132428e-01 8.9934752702023413e-01 3.7497028479775768e-01 2.3363581929220945e-01 1.7333428906992335e-01 1.4235098383983785e-01 1.2510450779085333e-01 1.1553010572113789e-01 
6.2526923847695559e-01 8.9552078136211288e-01 3.7362865672936058e-01 2.3294589545024030e-01 1.7293375381520326e-01 1.4211097595196856e-01 1.2496544244813310e-01 1.1545944752459888e-01 
6.2727314629258690e-01 8.9169530549229037e-01 3.7228717703436248e-01 2.3225621744965838e-01 1.7253352152465351e-01 1.4187128139067112e-01 1.2482666780854178e-01 1.1538902229248978e-01 
6.2927705410821821e-01 8.8787107690864453e-01 3.7094584080089071e-01 2.3156678417710935e-01 1.7213359250375293e-01 1.4163190102826687e-01 1.2468818484372729e-01 1.1531883074132109e-01 
6.3128096192384953e-01 8.8404807294683052e-01 3.6960464310434910e-01 2.3087759454342366e-01 1.7173396709149824e-01 1.4139283576918679e-01 1.2454999455001456e-01 1.1524887360110088e-01 
6.3328486973948084e-01 8.8022627077765836e-01 3.6826357900741841e-01 2.3018864748414608e-01 1.7133464566101528e-01 1.4115408655049486e-01 1.2441209794875534e-01 1.1517915161548432e-01 
6.3528877755511215e-01 8.7640564740442084e-01 3.6692264356006365e-01 2.2949994196008164e-01 1.7093562862018749e-01 1.4091565434242748e-01 1.2427449608668731e-01 1.1510966554192656e-01 
6.3729268537074346e-01 8.7258617966016838e-01 3.6558183179955356e-01 2.2881147695786136e-01 1.7053691641230329e-01 1.4067754014894568e-01 1.2413719003630130e-01 1.1504041615183797e-01 
6.3929659318637477e-01 8.6876784420493725e-01 3.6424113875048586e-01 2.2812325149052795e-01 1.7013850951672310e-01 1.4043974500830272e-01 1.2400018089621692e-01 1.1497140423074316e-01 
6.4130050100200608e-01 8.6495061752292690e-01 3.6290055942482324e-01 2.2743526459814123e-01 1.6974040844956509e-01 1.4020226999362692e-01 1.2386346979156695e-01 1.1490263057844191e-01 
6.4330440881763740e-01 8.6113447591963099e-01 3.6156008882194046e-01 2.2674751534840484e-01 1.6934261376441254e-01 1.3996511621351967e-01 1.2372705787439120e-01 1.1483409600917406e-01 
6.4530831663326871e-01 8.5731939551889724e-01 3.6021972192868229e-01 2.2606000283731301e-01 1.6894512605304093e-01 1.3972828481266958e-01 1.2359094632403900e-01 1.1476580135178713e-01 
6.4731222444890002e-01 8.5350535225995317e-01 3.5887945371942986e-01 2.2537272618982260e-01 1.6854794594616812e-01 1.3949177697248341e-01 1.2345513634758158e-01 1.1469774744990714e-01 
6.4931613226453133e-01 8.4969232189436661e-01 3.5753927915618322e-01 2.2468568456054633e-01 1.6815107411422567e-01 1.3925559391173314e-01 1.2331962918023377e-01 1.1462993516211281e-01 
6.5132004008016264e-01 8.4588027998295123e-01 3.5619919318865284e-01 2.2399887713447000e-01 1.6775451126815449e-01 1.3901973688722211e-01 1.2318442608578621e-01 1.1456236536211284e-01 
6.5332394789579395e-01 8.4206920189260903e-01 3.5485919075436562e-01 2.2331230312769584e-01 1.6735825816022273e-01 1.3878420719446677e-01 1.2304952835704704e-01 1.1449503893892653e-01 
6.5532785571142527e-01 8.3825906279312101e-01 3.5351926677878487e-01 2.2262596178821134e-01 1.6696231558487024e-01 1.3854900616839927e-01 1.2291493731629478e-01 1.1442795679706848e-01 
6.5733176352705658e-01 8.3444983765387304e-01 3.5217941617544307e-01 2.2193985239668329e-01 1.6656668437957720e-01 1.3831413518408728e-01 1.2278065431574128e-01 1.1436111985673597e-01 
6.5933567134268789e-01 8.3064150124052683e-01 3.5083963384609307e-01 2.2125397426728216e-01 1.6617136542575914e-01 1.3807959565747485e-01 1.2264668073800609e-01 1.1429452905400013e-01 
6.6133957915831920e-01 8.2683402811160600e-01 3.4949991468087133e-01 2.2056832674853288e-01 1.6577635964968956e-01 1.3784538904614213e-01 1.2251301799660207e-01 1.1422818534100118e-01 
6.6334348697395051e-01 8.2302739261504798e-01 3.4816025355848007e-01 2.1988290922419756e-01 1.6538166802345072e-01 1.3761151685008649e-01 1.2237966753643208e-01 1.1416208968614698e-01 
6.6534739478958183e-01 8.1922156888467024e-01 3.4682064534638729e-01 2.1919772111418714e-01 1.6498729156591235e-01 1.3737798061252587e-01 1.2224663083429857e-01 1.1409624307431528e-01 
6.6735130260521314e-01 8.1541653083656540e-01 3.4548108490104429e-01 2.1851276187550686e-01 1.6459323134374165e-01 1.3714478192072238e-01 1.2211390939942417e-01 1.1403064650706052e-01 
6.6935521042084445e-01 8.1161225216544453e-01 3.4414156706812232e-01 2.1782803100323292e-01 1.6419948847244395e-01 1.3691192240683034e-01 1.2198150477398563e-01 1.1396530100282351e-01 
6.7135911823647576e-01 8.0780870634089152e-01 3.4280208668277123e-01 2.1714352803152617e-01 1.6380606411743462e-01 1.3667940374876680e-01 1.2184941853366041e-01 1.1390020759714636e-01 
6.7336302605210707e-01 8.0400586660356255e-01 3.4146263856989745e-01 2.1645925253468026e-01 1.6341295949514512e-01 1.3644722767110640e-01 1.2171765228818612e-01 1.1383536734289038e-01 
6.7536693386773838e-01 8.0020370596129031e-01 3.4012321754446567e-01 2.1577520412820686e-01 1.6302017587416270e-01 1.3621539594600188e-01 1.2158620768193396e-01 1.1377078131045909e-01 
6.7737084168336970e-01 7.9640219718513572e-01 3.3878381841182514e-01 2.1509138246995982e-01 1.6262771457640593e-01 1.3598391039412849e-01 1.2145508639449565e-01 1.1370645058802492e-01 
6.7937474949900101e-01 7.9260131280534452e-01 3.3744443596805751e-01 2.1440778726129975e-01 1.6223557697833679e-01 1.3575277288565724e-01 1.2132429014128501e-01 1.1364237628176056e-01 
6.8137865731463232e-01 7.8880102510723560e-01 3.3610506500035503e-01 2.1372441824830024e-01 1.6184376451221086e-01 1.3552198534125356e-01 1.2119382067415393e-01 1.1357855951607487e-01 
6.8338256513026363e-01 7.8500130612699970e-01 3.3476570028742231e-01 2.1304127522299696e-01 1.6145227866736644e-01 1.3529154973310534e-01 1.2106367978202338e-01 1.1351500143385300e-01 
6.8538647294589494e-01 7.8120212764742525e-01 3.3342633659990945e-01 2.1235835802468175e-01 1.6106112099155515e-01 1.3506146808597913e-01 1.2093386929153026e-01 1.1345170319670143e-01 
6.8739038076152625e-01 7.7740346119353432e-01 3.3208696870087379e-01 2.1167566654124448e-01 1.6067029309231365e-01 1.3483174247830731e-01 1.2080439106768952e-01 1.1338866598519801e-01 
6.8939428857715757e-01 7.7360527802812573e-01 3.3074759134627513e-01 2.1099320071056224e-01 1.6027979663838018e-01 1.3460237504330555e-01 1.2067524701457338e-01 1.1332589099914590e-01 
6.9139819639278888e-01 7.6980754914724892e-01 3.2940819928550369e-01 2.1031096052193932e-01 1.5988963336115539e-01 1.3437336797012286e-01 1.2054643907600658e-01 1.1326337945783393e-01 
6.9340210420842019e-01 7.6601024527556738e-01 3.2806878726194116e-01 2.0962894601760179e-01 1.5949980505621092e-01 1.3414472350502382e-01 1.2041796923627944e-01 1.1320113260030076e-01 
6.9540601202405150e-01 7.6221333686164017e-01 3.2672935001356218e-01 2.0894715729424307e-01 1.5911031358484576e-01 1.3391644395260588e-01 1.2028983952087852e-01 1.1313915168560471e-01 
6.9740991983968281e-01 7.5841679407310647e-01 3.2538988227357285e-01 2.0826559450463014e-01 1.5872116087569338e-01 1.3368853167705155e-01 1.2016205199723531e-01 1.1307743799309913e-01 
6.9941382765531412e-01 7.5462058679178012e-01 3.2405037877108955e-01 2.0758425785926618e-01 1.5833234892638132e-01 1.3346098910341667e-01 1.2003460877549417e-01 1.1301599282271255e-01 
7.0141773547094544e-01 7.5082468460863472e-01 3.2271083423186192e-01 2.0690314762811704e-01 1.5794387980524432e-01 1.3323381871895673e-01 1.1990751200929853e-01 1.1295481749523523e-01 
7.0342164328657675e-01 7.4702905681869658e-01 3.2137124337904022e-01 2.0622226414240052e-01 1.5755575565309443e-01 1.3300702307449197e-01 1.1978076389659874e-01 1.1289391335261011e-01 
7.0542555110220806e-01 7.4323367241583194e-01 3.2003160093399108e-01 2.0554160779644229e-01 1.5716797868504884e-01 1.3278060478581286e-01 1.1965436668047805e-01 1.1283328175823108e-01 
7.0742945891783937e-01 7.3943850008743373e-01 3.1869190161716104e-01 2.0486117904960338e-01 1.5678055119241827e-01 1.3255456653512657e-01 1.1952832265000170e-01 1.1277292409724551e-01 
7.0943336673347068e-01 7.3564350820898661e-01 3.1735214014899676e-01 2.0418097842827815e-01 1.5639347554465810e-01 1.3232891107254671e-01 1.1940263414108647e-01 1.1271284177686436e-01 
7.1143727454910199e-01 7.3184866483854816e-01 3.1601231125091467e-01 2.0350100652796818e-01 1.5600675419138546e-01 1.3210364121762835e-01 1.1927730353739241e-01 1.1265303622667715e-01 
7.1344118236473331e-01 7.2805393771109361e-01 3.1467240964633569e-01 2.0282126401543724e-01 1.5562038966446265e-01 1.3187875986094721e-01 1.1915233327123825e-01 1.1259350889897393e-01 
7.1544509018036462e-01 7.2425929423275559e-01 3.1333243006177425e-01 2.0214175163094478e-01 1.5523438458015187e-01 1.3165426996572815e-01 1.1902772582453935e-01 1.1253426126907383e-01 
7.1744899799599593e-01 7.2046470147495389e-01 3.1199236722799806e-01 2.0146247019056832e-01 1.5484874164134307e-01 1.3143017456952188e-01 1.1890348372977128e-01 1.1247529483565931e-01 
7.1945290581162724e-01 7.1667012616839809e-01 3.1065221588125186e-01 2.0078342058861304e-01 1.5446346363985644e-01 1.3120647678593303e-01 1.1877960957095662e-01 1.1241661112111820e-01 
7.2145681362725855e-01 7.1287553469696874e-01 3.0931197076455302e-01 2.0010460380011647e-01 1.5407855345882557e-01 1.3098317980640076e-01 1.1865610598467928e-01 1.1235821167189206e-01 
7.2346072144288986e-01 7.0908089309147881e-01 3.0797162662906413e-01 1.9942602088344943e-01 1.5369401407516098e-01 1.3076028690203390e-01 1.1853297566112410e-01 1.1230009805883144e-01 
7.2546462925852118e-01 7.0528616702330493e-01 3.0663117823554453e-01 1.9874767298301857e-01 1.5330984856209967e-01 1.3053780142550267e-01 1.1841022134514426e-01 1.1224227187755871e-01 
7.2746853707415249e-01 7.0149132179789897e-01 3.0529062035588256e-01 1.9806956133207526e-01 1.5292606009184409e-01 1.3031572681298970e-01 1.1828784583735667e-01 1.1218473474883818e-01 
7.2947244488978380e-01 6.9769632234815060e-01 3.0394994777472090e-01 1.9739168725563586e-01 1.5254265193829081e-01 1.3009406658620018e-01 1.1816585199526668e-01 1.1212748831895354e-01 
7.3147635270541511e-01 6.9390113322763058e-01 3.0260915529116983e-01 1.9671405217351742e-01 1.5215962747985867e-01 1.2987282435443637e-01 1.1804424273442209e-01 1.1207053426009303e-01 
7.3348026052104642e-01 6.9010571860369452e-01 3.0126823772062283e-01 1.9603665760349379e-01 1.5177699020241386e-01 1.2965200381673622e-01 1.1792302102959844e-01 1.1201387427074291e-01 
7.3548416833667773e-01 6.8631004225044456e-01 2.9992718989666955e-01 1.9535950516457881e-01 1.5139474370230049e-01 1.2943160876408019e-01 1.1780218991601572e-01 1.1195751007608838e-01 
7.3748807615230905e-01 6.8251406754155097e-01 2.9858600667312485e-01 1.9468259658044218e-01 1.5101289168947907e-01 1.2921164308166774e-01 1.1768175249058856e-01 1.1190144342842336e-01 
7.3949198396794036e-01 6.7871775744292506e-01 2.9724468292616663e-01 1.9400593368296298e-01 1.5063143799077783e-01 1.2899211075126676e-01 1.1756171191320873e-01 1.1184567610756802e-01 
7.4149589178357167e-01 6.7492107450526007e-01 2.9590321355659704e-01 1.9332951841592838e-01 1.5025038655326145e-01 1.2877301585363796e-01 1.1744207140806416e-01 1.1179020992129578e-01 
7.4349979959920298e-01 6.7112398085639724e-01 2.9456159349223193e-01 1.9265335283888321e-01 1.4986974144772278e-01 1.2855436257103728e-01 1.1732283426499245e-01 1.1173504670576839e-01 
7.4550370741483429e-01 6.6732643819357118e-01 2.9321981769042482e-01 1.9197743913113915e-01 1.4948950687230075e-01 1.2833615518980021e-01 1.1720400384087250e-01 1.1168018832598076e-01 
7.4750761523046561e-01 6.6352840777546829e-01 2.9187788114073215e-01 1.9130177959594910e-01 1.4910968715623332e-01 1.2811839810300954e-01 1.1708558356105359e-01 1.1162563667621442e-01 
7.4951152304609692e-01 6.5972985041416010e-01 2.9053577886773119e-01 1.9062637666485535e-01 1.4873028676374836e-01 1.2790109581325032e-01 1.1696757692082452e-01 1.1157139368050104e-01 
7.5151543086172823e-01 6.5593072646685457e-01 2.8919350593399368e-01 1.8995123290222027e-01 1.4835131029809812e-01 1.2768425293545649e-01 1.1684998748692316e-01 1.1151746129309506e-01 
7.5351933867735954e-01 6.5213099582749612e-01 2.8785105744323208e-01 1.8927635100994888e-01 1.4797276250574745e-01 1.2746787419985073e-01 1.1673281889908788e-01 1.1146384149895724e-01 
7.5552324649299085e-01 6.4833061791820012e-01 2.8650842854361780e-01 1.8860173383240977e-01 1.4759464828071703e-01 1.2725196445498310e-01 1.1661607487165294e-01 1.1141053631424731e-01 
7.5752715430862216e-01 6.4452955168052650e-01 2.8516561443129074e-01 1.8792738436156739e-01 1.4721697266909378e-01 1.2703652867087048e-01 1.1649975919518822e-01 1.1135754778682776e-01 
7.5953106212425348e-01 6.4072775556657857e-01 2.8382261035406731e-01 1.8725330574233373e-01 1.4683974087371038e-01 1.2682157194224236e-01 1.1638387573818555e-01 1.1130487799677811e-01 
7.6153496993988479e-01 6.3692518752994121e-01 2.8247941161535328e-01 1.8657950127815212e-01 1.4646295825900787e-01 1.2660709949189652e-01 1.1626842844879258e-01 1.1125252905692037e-01 
7.6353887775551610e-01 6.3312180501644177e-01 2.8113601357828816e-01 1.8590597443682305e-01 1.4608663035608310e-01 1.2639311667416883e-01 1.1615342135659656e-01 1.1120050311335521e-01 
7.6554278557114741e-01 6.2931756495474456e-01 2.7979241167011376e-01 1.8523272885658432e-01 1.4571076286793383e-01 1.2617962897852172e-01 1.1603885857445870e-01 1.1114880234601050e-01 
7.6754669338677872e-01 6.2551242374677118e-01 2.7844860138680100e-01 1.8455976835245977e-01 1.4533536167490901e-01 1.2596664203325686e-01 1.1592474430040157e-01 1.1109742896920063e-01 
7.6955060120241003e-01 6.2170633725794244e-01 2.7710457829793245e-01 1.8388709692288915e-01 1.4496043284037352e-01 1.2575416160935537e-01 1.1581108281955085e-01 1.1104638523219866e-01 
7.7155450901804135e-01 6.1789926080725976e-01 2.7576033805187100e-01 1.8321471875665341e-01 1.4458598261659783e-01 1.2554219362445393e-01 1.1569787850613396e-01 1.1099567341982076e-01 
7.7355841683367266e-01 6.1409114915719198e-01 2.7441587638121856e-01 1.8254263824011041e-01 1.4421201745088177e-01 1.2533074414695797e-01 1.1558513582553653e-01 1.1094529585302305e-01 
7.7556232464930397e-01 6.1028195650341288e-01 2.7307118910859385e-01 1.8187085996475844e-01 1.4383854399192572e-01 1.2511981940030167e-01 1.1547285933641951e-01 1.1089525488951155e-01 
7.7756623246493528e-01 6.0647163646434055e-01 2.7172627215273754e-01 1.8119938873514460e-01 1.4346556909645855e-01 1.2490942576735867e-01 1.1536105369289841e-01 1.1084555292436607e-01 
7.7957014028056659e-01 6.0266014207052765e-01 2.7038112153497484e-01 1.8052822957713344e-01 1.4309309983613591e-01 1.2469956979501003e-01 1.1524972364678755e-01 1.1079619239067662e-01 
7.8157404809619790e-01 5.9884742575386263e-01 2.6903573338605014e-01 1.7985738774655929e-01 1.4272114350472187e-01 1.2449025819887712e-01 1.1513887404991067e-01 1.1074717576019483e-01 
7.8357795591182922e-01 5.9503343933661712e-01 2.6769010395336051e-01 1.7918686873827991e-01 1.4234970762556609e-01 1.2428149786822494e-01 1.1502850985648107e-01 1.1069850554399982e-01 
7.8558186372746053e-01 5.9121813402032031e-01 2.6634422960861076e-01 1.7851667829565318e-01 1.4197879995939353e-01 1.2407329587104415e-01 1.1491863612555298e-01 1.1065018429317798e-01 
7.8758577154309184e-01 5.8740146037447560e-01 2.6499810685591957e-01 1.7784682242046188e-01 1.4160842851241895e-01 1.2386565945931917e-01 1.1480925802354743e-01 1.1060221459951852e-01 
7.8958967935872315e-01 5.8358336832512236e-01 2.6365173234039840e-01 1.7717730738330975e-01 1.4123860154480522e-01 1.2365859607449091e-01 1.1470038082685481e-01 1.1055459909622480e-01 
7.9159358717435446e-01 5.7976380714324616e-01 2.6230510285724273e-01 1.7650813973451290e-01 1.4086932757948023e-01 1.2345211335312160e-01 1.1459200992451656e-01 1.1050734045864062e-01 
7.9359749498998577e-01 5.7594272543304337e-01 2.6095821536135883e-01 1.7583932631551938e-01 1.4050061541133155e-01 1.2324621913277133e-01 1.1448415082098987e-01 1.1046044140499417e-01 
7.9560140280561709e-01 5.7212007112005225e-01 2.5961106697756714e-01 1.7517087427088052e-01 1.4013247411679791e-01 1.2304092145809567e-01 1.1437680913899695e-01 1.1041390469715770e-01 
7.9760531062124840e-01 5.6829579143916031e-01 2.5826365501141779e-01 1.7450279106081046e-01 1.3976491306387689e-01 1.2283622858717369e-01 1.1426999062246369e-01 1.1036773314142490e-01 
7.9960921843687971e-01 5.6446983292249397e-01 2.5691597696065482e-01 1.7383508447436341e-01 1.3939794192257215e-01 1.2263214899807710e-01 1.1416370113954909e-01 1.1032192958930570e-01 
8.0161312625251102e-01 5.6064214138720214e-01 2.5556803052737687e-01 1.7316776264326700e-01 1.3903157067579971e-01 1.2242869139569153e-01 1.1405794668577057e-01 1.1027649693834006e-01 
8.0361703406814233e-01 5.5681266192315948e-01 2.5421981363093671e-01 1.7250083405644887e-01 1.3866580963078079e-01 1.2222586471880091e-01 1.1395273338722692e-01 1.1023143813292866e-01 
8.0562094188377364e-01 5.5298133888059275e-01 2.5287132442163168e-01 1.7183430757529586e-01 1.3830066943094393e-01 1.2202367814744680e-01 1.1384806750392447e-01 1.1018675616518490e-01 
8.0762484969940496e-01 5.4914811585765499e-01 2.5152256129523437e-01 1.7116819244969128e-01 1.3793616106836548e-01 1.2182214111057715e-01 1.1374395543320898e-01 1.1014245407580460e-01 
8.0962875751503627e-01 5.4531293568796757e-01 2.5017352290842526e-01 1.7050249833487618e-01 1.3757229589677561e-01 1.2162126329399447e-01 1.1364040371330698e-01 1.1009853495495736e-01 
8.1163266533066758e-01 5.4147574042816082e-01 2.4882420819518522e-01 1.6983723530918082e-01 1.3720908564516104e-01 1.2142105464862145e-01 1.1353741902698244e-01 1.1005500194319742e-01 
8.1363657314629889e-01 5.3763647134542725e-01 2.4747461638421381e-01 1.6917241389268459e-01 1.3684654243199823e-01 1.2122152539909505e-01 1.1343500820531109e-01 1.1001185823239704e-01 
8.1564048096193020e-01 5.3379506890512773e-01 2.4612474701744877e-01 1.6850804506685715e-01 1.3648467878014722e-01 1.2102268605270845e-01 1.1333317823157832e-01 1.0996910706670031e-01 
8.1764438877756151e-01 5.2995147275849241e-01 2.4477459996975776e-01 1.6784414029524225e-01 1.3612350763244935e-01 1.2082454740871351e-01 1.1323193624530482e-01 1.0992675174350097e-01 
8.1964829659319283e-01 5.2610562173043429e-01 2.4342417546989137e-01 1.6718071154525052e-01 1.3576304236806183e-01 1.2062712056800474e-01 1.1313128954640513e-01 1.0988479561444205e-01 
8.2165220440882414e-01 5.2225745380754585e-01 2.4207347412278052e-01 1.6651777131112896e-01 1.3540329681957258e-01 1.2043041694320077e-01 1.1303124559948384e-01 1.0984324208644000e-01 
8.2365611222445545e-01 5.1840690612630436e-01 2.4072249693328068e-01 1.6585533263818283e-01 1.3504428529094328e-01 1.2023444826914377e-01 1.1293181203827565e-01 1.0980209462273274e-01 
8.2566002004008676e-01 5.1455391496156333e-01 2.3937124533146542e-01 1.6519340914833069e-01 1.3468602257632040e-01 1.2003922661383677e-01 1.1283299667023440e-01 1.0976135674395311e-01 
8.2766392785571807e-01 5.1069841571537211e-01 2.3801972119957907e-01 1.6453201506707746e-01 1.3432852397977260e-01 1.1984476438984144e-01 1.1273480748127664e-01 1.0972103202922785e-01 
8.2966783567134939e-01 5.0684034290621471e-01 2.3666792690077970e-01 1.6387116525199993e-01 1.3397180533600164e-01 1.1965107436615874e-01 1.1263725264068666e-01 1.0968112411730320e-01 
8.3167174348698070e-01 5.0297963015873026e-01 2.3531586530979390e-01 1.6321087522284139e-01 1.3361588303208771e-01 1.1945816968061640e-01 1.1254034050618950e-01 1.0964163670769744e-01 
8.3367565130261201e-01 4.9911621019400482e-01 2.3396353984563892e-01 1.6255116119332635e-01 1.3326077403032971e-01 1.1926606385279004e-01 1.1244407962919757e-01 1.0960257356188220e-01 
8.3567955911824332e-01 4.9525001482055214e-01 2.3261095450656083e-01 1.6189204010480807e-01 1.3290649589224540e-01 1.1907477079748363e-01 1.1234847876023948e-01 1.0956393850449134e-01 
8.3768346693387463e-01 4.9138097492606458e-01 2.3125811390736090e-01 1.6123352966187399e-01 1.3255306680380147e-01 1.1888430483879942e-01 1.1225354685457728e-01 1.0952573542456080e-01 
8.3968737474950594e-01 4.8750902047008299e-01 2.2990502331929566e-01 1.6057564837004465e-01 1.3220050560194913e-01 1.1869468072482767e-01 1.1215929307802096e-01 1.0948796827679777e-01 
8.4169128256513726e-01 4.8363408047770939e-01 2.2855168871275278e-01 1.5991841557571029e-01 1.3184883180254486e-01 1.1850591364298770e-01 1.1206572681294713e-01 1.0945064108288192e-01 
8.4369519038076857e-01 4.7975608303452599e-01 2.2719811680291704e-01 1.5926185150846101e-01 1.3149806562974220e-01 1.1831801923605614e-01 1.1197285766453145e-01 1.0941375793279881e-01 
8.4569909819639988e-01 4.7587495528288887e-01 2.2584431509867495e-01 1.5860597732598075e-01 1.3114822804694606e-01 1.1813101361891727e-01 1.1188069546720358e-01 1.0937732298620613e-01 
8.4770300601203119e-01 4.7199062341979942e-01 2.2449029195500431e-01 1.5795081516168971e-01 1.3079934078943178e-01 1.1794491339607571e-01 1.1178925029133321e-01 1.0934134047383458e-01 
8.4970691382766250e-01 4.6810301269655580e-01 2.2313605662914729e-01 1.5729638817533201e-01 1.3045142639873045e-01 1.1775973567997083e-01 1.1169853245015854e-01 1.0930581469892334e-01 
8.5171082164329381e-01 4.6421204742045358e-01 2.2178161934086943e-01 1.5664272060672343e-01 1.3010450825889674e-01 1.1757549811013908e-01 1.1160855250696593e-01 1.0927075003869272e-01 
8.5371472945892513e-01 4.6031765095878607e-01 2.2042699133714894e-01 1.5598983783289549e-01 1.2975861063478428e-01 1.1739221887326837e-01 1.1151932128253247e-01 1.0923615094585272e-01 
8.5571863727455644e-01 4.5641974574546612e-01 2.1907218496166722e-01 1.5533776642888725e-01 1.2941375871245428e-01 1.1720991672419490e-01 1.1143084986284310e-01 1.0920202195015136e-01 
8.5772254509018775e-01 4.5251825329061340e-01 2.1771721372951150e-01 1.5468653423246176e-01 1.2906997864186737e-01 1.1702861100789613e-01 1.1134314960709313e-01 1.0916836765996168e-01 
8.5972645290581906e-01 4.4861309419349360e-01 2.1636209240753376e-01 1.5403617041304601e-01 1.2872729758200463e-01 1.1684832168253394e-01 1.1125623215598998e-01 1.0913519276390959e-01 
8.6173036072145037e-01 4.4470418815924850e-01 2.1500683710086929e-01 1.5338670554522182e-01 1.2838574374858783e-01 1.1666906934360961e-01 1.1117010944036659e-01 1.0910250203254404e-01 
8.6373426853708168e-01 4.4079145401990211e-01 2.1365146534614632e-01 1.5273817168712506e-01 1.2804534646457383e-01 1.1649087524929341e-01 1.1108479369012021e-01 1.0907030032004993e-01 
8.6573817635271300e-01 4.3687480976020932e-01 2.1229599621198952e-01 1.5209060246413691e-01 1.2770613621361707e-01 1.1631376134699681e-01 1.1100029744349205e-01 1.0903859256600602e-01 
8.6774208416834431e-01 4.3295417254895624e-01 2.1094045040747869e-01 1.5144403315829899e-01 1.2736814469670787e-01 1.1613775030126036e-01 1.1091663355670238e-01 1.0900738379718831e-01 
8.6974599198397562e-01 4.2902945877642196e-01 2.0958485039928598e-01 1.5079850080390869e-01 1.2703140489221068e-01 1.1596286552303395e-01 1.1083381521395706e-01 1.0897667912942109e-01 
8.7174989979960693e-01 4.2510058409879958e-01 2.0822922053829998e-01 1.5015404428980733e-01 1.2669595111954621e-01 1.1578913120043290e-01 1.1075185593784362e-01 1.0894648376947648e-01 
8.7375380761523824e-01 4.2116746349046252e-01 2.0687358719662316e-01 1.4951070446891618e-01 1.2636181910678101e-01 1.1561657233105854e-01 1.1067076960013338e-01 1.0891680301702444e-01 
8.7575771543086955e-01 4.1723001130510246e-01 2.0551797891593307e-01 1.4886852427562922e-01 1.2602904606241055e-01 1.1544521475597655e-01 1.1059057043300936e-01 1.0888764226663455e-01 
8.7776162324650087e-01 4.1328814134687841e-01 2.0416242656830078e-01 1.4822754885173522e-01 1.2569767075164592e-01 1.1527508519545661e-01 1.1051127304073982e-01 1.0885900700983112e-01 
8.7976553106213218e-01 4.0934176695288960e-01 2.0280696353068353e-01 1.4758782568160453e-01 1.2536773357754091e-01 1.1510621128657954e-01 1.1043289241181774e-01 1.0883090283720386e-01 
8.8176943887776349e-01 4.0539080108843745e-01 2.0145162587444659e-01 1.4694940473745130e-01 1.2503927666732800e-01 1.1493862162283061e-01 1.1035544393158918e-01 1.0880333544057495e-01 
8.8377334669339480e-01 4.0143515645677974e-01 2.0009645257142364e-01 1.4631233863556728e-01 1.2471234396435897e-01 1.1477234579580131e-01 1.1027894339539321e-01 1.0877631061522514e-01 
8.8577725450902611e-01 3.9747474562526885e-01 1.9874148571820546e-01 1.4567668280451074e-01 1.2438698132608779e-01 1.1460741443913595e-01 1.1020340702223794e-01 1.0874983426218011e-01 
8.8778116232465742e-01 3.9350948117007095e-01 1.9738677078052808e-01 1.4504249566634422e-01 1.2406323662856870e-01 1.1444385927486458e-01 1.1012885146903924e-01 1.0872391239055976e-01 
8.8978507014028874e-01 3.8953927584195946e-01 1.9603235685989456e-01 1.4440983883212530e-01 1.2374115987798609e-01 1.1428171316227825e-01 1.1005529384544874e-01 1.0869855111999158e-01 
8.9178897795592005e-01 3.8556404275602557e-01 1.9467829698476552e-01 1.4377877731298744e-01 1.2342080332978213e-01 1.1412101014951212e-01 1.0998275172930078e-01 1.0867375668309084e-01 
8.9379288577155136e-01 3.8158369560857019e-01 1.9332464842901267e-01 1.4314937974829547e-01 1.2310222161600165e-01 1.1396178552801479e-01 1.0991124318270822e-01 1.0864953542800977e-01 
8.9579679358718267e-01 3.7759814892494359e-01 1.9197147306059739e-01 1.4252171865252250e-01 1.2278547188152955e-01 1.1380407589009715e-01 1.0984078676884022e-01 1.0862589382105692e-01 
8.9780070140281398e-01 3.7360731834261351e-01 1.9061883772387614e-01 1.4189587068268358e-01 1.2247061392996410e-01 1.1364791918976719e-01 1.0977140156941552e-01 1.0860283844939120e-01 
8.9980460921844529e-01 3.6961112093445747e-01 1.8926681465933007e-01 1.4127191692837213e-01 1.2215771037994060e-01 1.1349335480707472e-01 1.0970310720294754e-01 1.0858037602379027e-01 
9.0180851703407661e-01 3.6560947557796813e-01 1.8791548196504709e-01 1.4064994322667879e-01 1.2184682683280235e-01 1.1334042361620802e-01 1.0963592384378032e-01 1.0855851338149818e-01 
9.0381242484970792e-01 3.6160230337704030e-01 1.8656492410485345e-01 1.4003004050454959e-01 1.2153803205259948e-01 1.1318916805760119e-01 1.0956987224195497e-01 1.0853725748915345e-01 
9.0581633266533923e-01 3.5758952814398604e-01 1.8521523246865748e-01 1.3941230515143879e-01 1.2123139815950526e-01 1.1303963221433601e-01 1.0950497374394991e-01 1.0851661544580089e-01 
9.0782024048097054e-01 3.5357107695072576e-01 1.8386650599136067e-01 1.3879683942546936e-01 1.2092700083784354e-01 1.1289186189314167e-01 1.0944125031434110e-01 1.0849659448598964e-01 
9.0982414829660185e-01 3.4954688075952556e-01 1.8251885183756841e-01 1.3818375189670321e-01 1.2062491956004714e-01 1.1274590471032216e-01 1.0937872455842940e-01 1.0847720198296067e-01 
9.1182805611223317e-01 3.4551687514543844e-01 1.8117238616040202e-01 1.3757315793158761e-01 1.2032523782801123e-01 1.1260181018296955e-01 1.0931741974588792e-01 1.0845844545192682e-01 
9.1383196392786448e-01 3.4148100112463026e-01 1.7982723494391167e-01 1.3696518022315757e-01 1.2002804343345513e-01 1.1245962982585013e-01 1.0925735983548193e-01 1.0844033255344772e-01 
9.1583587174349579e-01 3.3743920610527545e-01 1.7848353494003644e-01 1.3635994937217905e-01 1.1973342873908759e-01 1.1231941725438373e-01 1.0919856950092070e-01 1.0842287109690407e-01 
9.1783977955912710e-01 3.3339144498064699e-01 1.7714143471272659e-01 1.3575760452510016e-01 1.1944149098256397e-01 1.1218122829417350e-01 1.0914107415790203e-01 1.0840606904407404e-01 
9.1984368737475841e-01 3.2933768138757019e-01 1.7580109580380771e-01 1.3515829407547741e-01 1.1915233260545277e-01 1.1204512109758384e-01 1.0908489999241473e-01 1.0838993451281496e-01 
9.2184759519038972e-01 3.2527788915769168e-01 1.7446269403750195e-01 1.3456217643645907e-01 1.1886606160967028e-01 1.1191115626790449e-01 1.0903007399036818e-01 1.0837447578085502e-01 
9.2385150300602104e-01 3.2121205399418679e-01 1.7312642098327902e-01 1.3396942089297070e-01 1.1858279194413852e-01 1.1177939699169298e-01 1.0897662396862365e-01 1.0835970128969756e-01 
9.2585541082165235e-01 3.1714017541279949e-01 1.7179248559997662e-01 1.3338020854349000e-01 1.1830264392473254e-01 1.1164990917993518e-01 1.0892457860750492e-01 1.0834561964864335e-01 
9.2785931863728366e-01 3.1306226899378409e-01 1.7046111608804393e-01 1.3279473334272912e-01 1.1802574469095740e-01 1.1152276161872612e-01 1.0887396748487292e-01 1.0833223963893342e-01 
9.2986322645291497e-01 3.0897836900070830e-01 1.6913256198143731e-01 1.3221320325823868e-01 1.1775222870320423e-01 1.1139802613023544e-01 1.0882482111185260e-01 1.0831957021801827e-01 
9.3186713426854628e-01 3.0488853143359379e-01 1.6780709651631839e-01 1.3163584155590768e-01 1.1748223828490961e-01 1.1127577774479719e-01 1.0877717097030790e-01 1.0830762052395689e-01 
9.3387104208417759e-01 3.0079283759820019e-01 1.6648501932048884e-01 1.3106288823166209e-01 1.1721592421448424e-01 1.1115609488503789e-01 1.0873104955216566e-01 1.0829639987995070e-01 
9.3587494989980891e-01 2.9669139829099511e-01 1.6516665947571668e-01 1.3049460160939361e-01 1.1695344637249097e-01 1.1103905956305052e-01 1.0868649040069731e-01 1.0828591779901738e-01 
9.3787885771544022e-01 2.9258435872151423e-01 1.6385237901511024e-01 1.2993126012838294e-01 1.1669497445026258e-01 1.1092475759171479e-01 1.0864352815387332e-01 1.0827618398880937e-01 
9.3988276553107153e-01 2.8847190432175712e-01 1.6254257692994944e-01 1.2937316434732560e-01 1.1644068872695909e-01 1.1081327881137659e-01 1.0860219858991381e-01 1.0826720835658263e-01 
9.4188667334670284e-01 2.8435426762748467e-01 1.6123769377540503e-01 1.2882063919663306e-01 1.1619078092300222e-01 1.1070471733321603e-01 1.0856253867516827e-01 1.0825900101432068e-01 
9.4389058116233415e-01 2.8023173646115612e-01 1.5993821698316618e-01 1.2827403651614888e-01 1.1594545513890096e-01 1.1059917180077385e-01 1.0852458661446474e-01 1.0825157228402073e-01 
9.4589448897796546e-01 2.7610466370373182e-01 1.5864468701207524e-01 1.2773373792198001e-01 1.1570492888973306e-01 1.1049674567124966e-01 1.0848838190407926e-01 1.0824493270314625e-01 
9.4789839679359678e-01 2.7197347901673508e-01 1.5735770449668487e-01 1.2720015805403637e-01 1.1546943424699109e-01 1.1039754751835736e-01 1.0845396538748878e-01 1.0823909303025406e-01 
9.4990230460922809e-01 2.6783870297234619e-01 1.5607793858987593e-01 1.2667374826543595e-01 1.1523921910118443e-01 1.1030169135871033e-01 1.0842137931407909e-01 1.0823406425080069e-01 
9.5190621242485940e-01 2.6370096417575495e-01 1.5480613674148100e-01 1.2615500082653811e-01 1.1501454856054992e-01 1.1020929700391692e-01 1.0839066740099569e-01 1.0822985758313666e-01 
9.5391012024049071e-01 2.5956102013099586e-01 1.5354313621317128e-01 1.2564445373054620e-01 1.1479570650351002e-01 1.1012049044080482e-01 1.0836187489833511e-01 1.0822648448469384e-01 
9.5591402805612202e-01 2.5541978282458366e-01 1.5228987770463590e-01 1.2514269620499596e-01 1.1458299730520838e-01 1.1003540424245746e-01 1.0833504865789247e-01 1.0822395665837495e-01 
9.5791793587175333e-01 2.5127835030173806e-01 1.5104742156266696e-01 1.2465037505486931e-01 1.1437674776160134e-01 1.0995417801304302e-01 1.0831023720569408e-01 1.0822228605915166e-01 
9.5992184368738465e-01 2.4713804591950747e-01 1.4981696717056461e-01 1.2416820198961370e-01 1.1417730923830942e-01 1.0987695886975285e-01 1.0828749081856354e-01 1.0822148490088082e-01 
9.6192575150301596e-01 2.4300046752542784e-01 1.4859987628046201e-01 1.2369696211940340e-01 1.1398506007583215e-01 1.0980390196554783e-01 1.0826686160498601e-01 1.0822156566334522e-01 
9.6392965931864727e-01 2.3886754959790088e-01 1.4739770127013596e-01 1.2323752384740283e-01 1.1380040828794992e-01 1.0973517105683851e-01 1.0824840359055832e-01 1.0822254109952993e-01 
9.6593356713427858e-01 2.3474164249855675e-01 1.4621221959888286e-01 1.2279085043700685e-01 1.1362379459636013e-01 1.0967093912071119e-01 1.0823217280833260e-01 1.0822442424314153e-01 
9.6793747494990989e-01 2.3062561458622344e-01 1.4504547613327368e-01 1.2235801359927458e-01 1.1345569585202266e-01 1.0961138902686784e-01 1.0821822739438611e-01 1.0822722841638152e-01 
9.6994138276554120e-01 2.2652298527548942e-01 1.4389983555544544e-01 1.2194020953038513e-01 1.1329662890260828e-01 1.0955671427007108e-01 1.0820662768897604e-01 1.0823096723798224e-01 
9.7194529058117252e-01 2.2243810058781782e-01 1.4277804781645584e-01 1.2153877793778120e-01 1.1314715497617285e-01 1.0950711976960657e-01 1.0819743634366658e-01 1.0823565463151755e-01 
9.7394919839680383e-01 2.1837636798971571e-01 1.4168333064859781e-01 1.2115522473475851e-01 1.1300788466416849e-01 1.0946282274308666e-01 1.0819071843484622e-01 1.0824130483399794e-01 
9.7595310621243514e-01 2.1434457542983765e-01 1.4061947464546429e-01 1.2079124926759995e-01 1.1287948360264626e-01 1.0942405366286027e-01 1.0818654158408848e-01 1.0824793240476241e-01 
9.7795701402806645e-01 2.1035133235125048e-01 1.3959097857678787e-01 1.2044877718229768e-01 1.1276267896973133e-01 1.0939105730435898e-01 1.0818497608584422e-01 1.0825555223467864e-01 
9.7996092184369776e-01 2.0640769139814025e-01 1.3860322577319698e-01 1.2013000036100374e-01 1.1265826694098537e-01 1.0936409389694586e-01 1.0818609504299670e-01 1.0826417955566492e-01 
9.8196482965932907e-01 2.0252804468177815e-01 1.3766271715202780e-01 1.1983742579220029e-01 1.1256712127324423e-01 1.0934344038924783e-01 1.0818997451085338e-01 1.0827382995054560e-01 
9.8396873747496039e-01 1.9873144951941712e-01 1.3677738367808168e-01 1.1957393582728022e-01 1.1249020322337096e-01 1.0932939184258782e-01 1.0819669365019731e-01 1.0828451936325580e-01 
9.8597264529059170e-01 1.9504364888347051e-01 1.3595701231435153e-01 1.1934286308391699e-01 1.1242857305294005e-01 1.0932226296802711e-01 1.0820633489007501e-01 1.0829626410940783e-01 
9.8797655310622301e-01 1.9150026052525326e-01 1.3521383751070445e-01 1.1914808437809021e-01 1.1238340342563344e-01 1.0932238982471797e-01 1.0821898410105539e-01 1.0830908088723688e-01 
9.8998046092185432e-01 1.8815202548043827e-01 1.3456337982470667e-01 1.1899413964400743e-01 1.1235599507425839e-01 1.0933013169981999e-01 1.0823473077975959e-01 1.0832298678893930e-01 
9.9198436873748563e-01 1.8507389384347506e-01 1.3402566330109952e-01 1.1888638405078483e-01 1.1234779520307051e-01 1.0934587319320178e-01 1.0825366824553118e-01 1.0833799931242273e-01 
9.9398827655311695e-01 1.8238176722570909e-01 1.3362703095962497e-01 1.1883118478189163e-01 1.1236041920417277e-01 1.0937002653362460e-01 1.0827589385019519e-01 1.0835413637348361e-01 
9.9599218436874826e-01 1.8026589194608592e-01 1.3340293778605578e-01 1.1883617873722085e-01 1.1239567641179447e-01 1.0940303415717031e-01 1.0830150920193971e-01 1.0837141631843195e-01 
9.9799609218437957e-01 1.7906474184019086e-01 1.3340240631766259e-01 1.1891061460076770e-01 1.1245560080564262e-01 1.0944537158346132e-01 1.0833062040444842e-01 1.0838985793718146e-01 
1.0000000000000109e+00 1.7945348367630920e-01 1.3369544594215288e-01 1.1906581369363597e-01 1.1254248781844485e-01 1.0949755063085202e-01 1.0836333831251693e-01 1.0840948047682664e-01 
