# Matter power spectrum P(k) at redshift z=0
# for k=8.5655e-06 to 0.514821 h/Mpc,
# number of wavenumbers equal to 568
#    1:k (h/Mpc)              2:P (Mpc/h)^3        
       8.565503353247e-06       8.989722961976e+01 
       1.913461280798e-05       1.951709507667e+02 
       2.972874963131e-05       2.985164326679e+02 
       4.036708992544e-05       4.009474637053e+02 
       5.106902387384e-05       5.030044283021e+02 
       6.185427228724e-05       6.050689332328e+02 
       7.274300569463e-05       7.074508988980e+02 
       8.375596707315e-05       8.104234001471e+02 
       9.491459931934e-05       9.142397807086e+02 
       1.062411785761e-04       1.019143404354e+03 
       1.177589545419e-04       1.125373838447e+03 
       1.294922988981e-04       1.233171191160e+03 
       1.414668629894e-04       1.342779446973e+03 
       1.537097458789e-04       1.454449168160e+03 
       1.662496738618e-04       1.568439879476e+03 
       1.791171924489e-04       1.685022242410e+03 
       1.923448717117e-04       1.804480105084e+03 
       2.059675256942e-04       1.927112511817e+03 
       2.200224463216e-04       2.053235675421e+03 
       2.345496518459e-04       2.183184937567e+03 
       2.495921493233e-04       2.317316743074e+03 
       2.651962098881e-04       2.456010580881e+03 
       2.814116546084e-04       2.599670900951e+03 
       2.982921474434e-04       2.748728946252e+03 
       3.158954901935e-04       2.903644466886e+03 
       3.342839122938e-04       3.064907215809e+03 
       3.535243457862e-04       3.233038167648e+03 
       3.736886727784e-04       3.408590291332e+03 
       3.948539291497e-04       3.592148766551e+03 
       4.171024442373e-04       3.784330448662e+03 
       4.405218918680e-04       3.985782345242e+03 
       4.652052236327e-04       4.197178885489e+03 
       4.912504511470e-04       4.419217739232e+03 
       5.187602408118e-04       4.652613813327e+03 
       5.478412831133e-04       4.898091284695e+03 
       5.786033998240e-04       5.156373306707e+03 
       6.111583577892e-04       5.428169304478e+03 
       6.456183684866e-04       5.714159766539e+03 
       6.820942691991e-04       6.014978729612e+03 
       7.206934047858e-04       6.331194092732e+03 
       7.615172580390e-04       6.663286635784e+03 
       8.046589094691e-04       7.011628519397e+03 
       8.502004405000e-04       7.376462288190e+03 
       8.982104225315e-04       7.757882027670e+03 
       9.487416524398e-04       8.155818041226e+03 
       1.001829297548e-03       8.570026479298e+03 
       1.057489596410e-03       9.000084996715e+03 
       1.115719225575e-03       9.445374595103e+03 
       1.176495390231e-03       9.905123350404e+03 
       1.239776635322e-03       1.037843950357e+04 
       1.305504312399e-03       1.086427680586e+04 
       1.373604585388e-03       1.136148417580e+04 
       1.443990822785e-03       1.186883160442e+04 
       1.516566208158e-03       1.238503829919e+04 
       1.591226404937e-03       1.290879934086e+04 
       1.667862131763e-03       1.343880978230e+04 
       1.746361535407e-03       1.397378717113e+04 
       1.826612283591e-03       1.451248963498e+04 
       1.908503334534e-03       1.505373015184e+04 
       1.991926370035e-03       1.559638618863e+04 
       2.076776902382e-03       1.613941266582e+04 
       2.162955081684e-03       1.668183439601e+04 
       2.250366240029e-03       1.722275855963e+04 
       2.338921213195e-03       1.776137206173e+04 
       2.428536480883e-03       1.829693512989e+04 
       2.519134163992e-03       1.882878412926e+04 
       2.610641913296e-03       1.935632188953e+04 
       2.702992719067e-03       1.987901909011e+04 
       2.796124666144e-03       2.039640290463e+04 
       2.889980654243e-03       2.090805991238e+04 
       2.984508099040e-03       2.141362349628e+04 
       3.079658625884e-03       2.191277965841e+04 
       3.175387764971e-03       2.240524783470e+04 
       3.271654654277e-03       2.289079671424e+04 
       3.368421754608e-03       2.336922216448e+04 
       3.465654579571e-03       2.384035355221e+04 
       3.563321442087e-03       2.430405525632e+04 
       3.661393218217e-03       2.476020586947e+04 
       3.759843128404e-03       2.520871877205e+04 
       3.858646535803e-03       2.564952395036e+04 
       3.957780761069e-03       2.608256630364e+04 
       4.057224912744e-03       2.650781733340e+04 
       4.156959732307e-03       2.692525016732e+04 
       4.256967452860e-03       2.733485438376e+04 
       4.357231670439e-03       2.773663509449e+04 
       4.457737226926e-03       2.813061766554e+04 
       4.558470103601e-03       2.851680613084e+04 
       4.659417324399e-03       2.889524395539e+04 
       4.760566868021e-03       2.926595525028e+04 
       4.861907588080e-03       2.962899206277e+04 
       4.963429140544e-03       2.998440268560e+04 
       5.065121917796e-03       3.033223319651e+04 
       5.166976988684e-03       3.067254474344e+04 
       5.268986043994e-03       3.100540540507e+04 
       5.371141346829e-03       3.133086236189e+04 
       5.473435687429e-03       3.164899482318e+04 
       5.575862342007e-03       3.195988345093e+04 
       5.678415035217e-03       3.226358088717e+04 
       5.781087905911e-03       3.256016476077e+04 
       5.883875475877e-03       3.284972202598e+04 
       5.986772621267e-03       3.313230803827e+04 
       6.089774546478e-03       3.340801419618e+04 
       6.192876760239e-03       3.367691282874e+04 
       6.296075053714e-03       3.393909530190e+04 
       6.399365480427e-03       3.419460561845e+04 
       6.502744337852e-03       3.444355827347e+04 
       6.606208150497e-03       3.468602002335e+04 
       6.709753654371e-03       3.492202862172e+04 
       6.813377782696e-03       3.515171431681e+04 
       6.917077652754e-03       3.537513857960e+04 
       7.020850553776e-03       3.559238340756e+04 
       7.124693935774e-03       3.580351873599e+04 
       7.228605399242e-03       3.600860642342e+04 
       7.332582685642e-03       3.620776482137e+04 
       7.436623668621e-03       3.640101863390e+04 
       7.540726345885e-03       3.658846333391e+04 
       7.644888831682e-03       3.677017757285e+04 
       7.749109349841e-03       3.694626575424e+04 
       7.853386227327e-03       3.711676320602e+04 
       7.957717888256e-03       3.728174450633e+04 
       8.062102848356e-03       3.744128971698e+04 
       8.166539709811e-03       3.759547164212e+04 
       8.271027156481e-03       3.774434449916e+04 
       8.375563949454e-03       3.788798908287e+04 
       8.480148922919e-03       3.802649081298e+04 
       8.584780980310e-03       3.815988625700e+04 
       8.689459090731e-03       3.828827835708e+04 
       8.794182285623e-03       3.841169722394e+04 
       8.898949655650e-03       3.853022967102e+04 
       9.003760347810e-03       3.864395344400e+04 
       9.108613562727e-03       3.875289131855e+04 
       9.213508552137e-03       3.885715435062e+04 
       9.318444616532e-03       3.895678975208e+04 
       9.423421102970e-03       3.905184569390e+04 
       9.528437403019e-03       3.914240313325e+04 
       9.633492950851e-03       3.922852039281e+04 
       9.738587221447e-03       3.931024916151e+04 
       9.843719728932e-03       3.938766373515e+04 
       9.948890025013e-03       3.946080668730e+04 
       1.005409769752e-02       3.952975202877e+04 
       1.015934236905e-02       3.959453560090e+04 
       1.026462369569e-02       3.965522278909e+04 
       1.036994136584e-02       3.971187647532e+04 
       1.047529509906e-02       3.976457038453e+04 
       1.058068464512e-02       3.981332759075e+04 
       1.068610978294e-02       3.985821710906e+04 
       1.079157031975e-02       3.989929523046e+04 
       1.089706609025e-02       3.993660958332e+04 
       1.100259695579e-02       3.997024172680e+04 
       1.110816280366e-02       4.000021233741e+04 
       1.121376354644e-02       4.002662553414e+04 
       1.131939912133e-02       4.004946277150e+04 
       1.142506948960e-02       4.006881241269e+04 
       1.153077463605e-02       4.008470893997e+04 
       1.163651456847e-02       4.009722345031e+04 
       1.174228931725e-02       4.010637296061e+04 
       1.184809893490e-02       4.011224348011e+04 
       1.195394349571e-02       4.011485263079e+04 
       1.205982309534e-02       4.011426602774e+04 
       1.216573785055e-02       4.011052129988e+04 
       1.227168789891e-02       4.010369230428e+04 
       1.237767339848e-02       4.009379979792e+04 
       1.248369452765e-02       4.008090004623e+04 
       1.258975148488e-02       4.006503217167e+04 
       1.269584448854e-02       4.004622774793e+04 
       1.280197377675e-02       4.002457037381e+04 
       1.290813960725e-02       4.000008935199e+04 
       1.301434225727e-02       3.997281666507e+04 
       1.312058202347e-02       3.994279549175e+04 
       1.322685922185e-02       3.991008461073e+04 
       1.333317418772e-02       3.987472082132e+04 
       1.343952727565e-02       3.983676895139e+04 
       1.354591885947e-02       3.979621145780e+04 
       1.365234933231e-02       3.975316220135e+04 
       1.375881910659e-02       3.970758542502e+04 
       1.386532861407e-02       3.965958080896e+04 
       1.397187830596e-02       3.960918359049e+04 
       1.407846865294e-02       3.955642892708e+04 
       1.418510014529e-02       3.950133538968e+04 
       1.429177329303e-02       3.944397189608e+04 
       1.439848862599e-02       3.938433587937e+04 
       1.450524669402e-02       3.932252813804e+04 
       1.461204806712e-02       3.925855612077e+04 
       1.471889333562e-02       3.919244166772e+04 
       1.482578311039e-02       3.912426940247e+04 
       1.493271802306e-02       3.905401693620e+04 
       1.503969872619e-02       3.898177513987e+04 
       1.514672589361e-02       3.890751077499e+04 
       1.525380022057e-02       3.883132689600e+04 
       1.536092242410e-02       3.875322288514e+04 
       1.546809324326e-02       3.867329447004e+04 
       1.557531343942e-02       3.859149122655e+04 
       1.568258379665e-02       3.850791114772e+04 
       1.578990512199e-02       3.842256567994e+04 
       1.589727824585e-02       3.833545627475e+04 
       1.600470402232e-02       3.824671816168e+04 
       1.611218332963e-02       3.815628391657e+04 
       1.621971707048e-02       3.806424170550e+04 
       1.632730617251e-02       3.797056707444e+04 
       1.643495158870e-02       3.787538908753e+04 
       1.654265429784e-02       3.777861861808e+04 
       1.665041530501e-02       3.768042402068e+04 
       1.675823564201e-02       3.758072027674e+04 
       1.686611636794e-02       3.747963193207e+04 
       1.697405856969e-02       3.737707938694e+04 
       1.708206336244e-02       3.727320043281e+04 
       1.719013189032e-02       3.716797958525e+04 
       1.729826532688e-02       3.706146984753e+04 
       1.740646487579e-02       3.695370674400e+04 
       1.751473177136e-02       3.684466724089e+04 
       1.762306727930e-02       3.673443397428e+04 
       1.773147269727e-02       3.662300605679e+04 
       1.783994935564e-02       3.651031924590e+04 
       1.794849861819e-02       3.639664921288e+04 
       1.805712188281e-02       3.628180756439e+04 
       1.816582058227e-02       3.616591234533e+04 
       1.827459618503e-02       3.604892673412e+04 
       1.838345019601e-02       3.593100174337e+04 
       1.849238415744e-02       3.581203498710e+04 
       1.860139964970e-02       3.569215777428e+04 
       1.871049829225e-02       3.557133234337e+04 
       1.881968174449e-02       3.544958096908e+04 
       1.892895170676e-02       3.532695868453e+04 
       1.903830992126e-02       3.520349472407e+04 
       1.914775817313e-02       3.507917742877e+04 
       1.925729829139e-02       3.495410064699e+04 
       1.936693215012e-02       3.482815159516e+04 
       1.947666166950e-02       3.470152687484e+04 
       1.958648881695e-02       3.457420673292e+04 
       1.969641560835e-02       3.444610961526e+04 
       1.980644410926e-02       3.431730701097e+04 
       1.991657643612e-02       3.418787488831e+04 
       2.002681475763e-02       3.405784066084e+04 
       2.013716129601e-02       3.392720987333e+04 
       2.024761832846e-02       3.379591254733e+04 
       2.035818818855e-02       3.366419212840e+04 
       2.046887326772e-02       3.353181443114e+04 
       2.057967601678e-02       3.339889662273e+04 
       2.069059894754e-02       3.326555095890e+04 
       2.080164463438e-02       3.313167210491e+04 
       2.091281571599e-02       3.299735449989e+04 
       2.102411489711e-02       3.286263151557e+04 
       2.113554495030e-02       3.272742956782e+04 
       2.124710871783e-02       3.259182674271e+04 
       2.135880911363e-02       3.245589237784e+04 
       2.147064912524e-02       3.231960739192e+04 
       2.158263181593e-02       3.218293965473e+04 
       2.169476032679e-02       3.204602544386e+04 
       2.180703787899e-02       3.190867601798e+04 
       2.191946777605e-02       3.177115123602e+04 
       2.203205340619e-02       3.163337692646e+04 
       2.214479824486e-02       3.149538755152e+04 
       2.225770585720e-02       3.135704030934e+04 
       2.237077990077e-02       3.121860245704e+04 
       2.248402412821e-02       3.107991633659e+04 
       2.259744239014e-02       3.094103918403e+04 
       2.271103863805e-02       3.080207039641e+04 
       2.282481692742e-02       3.066287699639e+04 
       2.293878142082e-02       3.052360993649e+04 
       2.305293639122e-02       3.038422990418e+04 
       2.316728622545e-02       3.024471073236e+04 
       2.328183542767e-02       3.010509164632e+04 
       2.339658862311e-02       2.996560773092e+04 
       2.351155056187e-02       2.982585140019e+04 
       2.362672612288e-02       2.968611249984e+04 
       2.374212031807e-02       2.954637946859e+04 
       2.385773829666e-02       2.940655846870e+04 
       2.397358534959e-02       2.926682929982e+04 
       2.408966691422e-02       2.912705766107e+04 
       2.420598857915e-02       2.898741162294e+04 
       2.432255608926e-02       2.884776415024e+04 
       2.443937535096e-02       2.870812660238e+04 
       2.455645243767e-02       2.856850847113e+04 
       2.467379359549e-02       2.842914733425e+04 
       2.479140524918e-02       2.828975152311e+04 
       2.490929400834e-02       2.815050254599e+04 
       2.502746667386e-02       2.801138659413e+04 
       2.514593024470e-02       2.787228373029e+04 
       2.526469192491e-02       2.773346900865e+04 
       2.538375913099e-02       2.759475362591e+04 
       2.550313949959e-02       2.745610810629e+04 
       2.562284089553e-02       2.731776288842e+04 
       2.574287142020e-02       2.717953869170e+04 
       2.586323942038e-02       2.704143019121e+04 
       2.598395349739e-02       2.690360491965e+04 
       2.610502251674e-02       2.676595770860e+04 
       2.622645561822e-02       2.662842275349e+04 
       2.634826222645e-02       2.649128955591e+04 
       2.647045206196e-02       2.635428791252e+04 
       2.659303515283e-02       2.621745522584e+04 
       2.671602184682e-02       2.608097214878e+04 
       2.683942282422e-02       2.594471728765e+04 
       2.696324911123e-02       2.580872556840e+04 
       2.708751209412e-02       2.567294808513e+04 
       2.721222353404e-02       2.553744929553e+04 
       2.733739558261e-02       2.540228316782e+04 
       2.746304079839e-02       2.526737721468e+04 
       2.758917216410e-02       2.513266986366e+04 
       2.771580310488e-02       2.499837643154e+04 
       2.784294750742e-02       2.486444332362e+04 
       2.797061974027e-02       2.473063452692e+04 
       2.809883467513e-02       2.459723488640e+04 
       2.822760770938e-02       2.446420308220e+04 
       2.835695478995e-02       2.433133565020e+04 
       2.848689243841e-02       2.419893933577e+04 
       2.861743777762e-02       2.406678605814e+04 
       2.874860855987e-02       2.393500218062e+04 
       2.888042319671e-02       2.380347498318e+04 
       2.901290079052e-02       2.367241467384e+04 
       2.914606116806e-02       2.354160664554e+04 
       2.927992491593e-02       2.341119783691e+04 
       2.941451341838e-02       2.328094949208e+04 
       2.954984889736e-02       2.315133250795e+04 
       2.968595445517e-02       2.302194120976e+04 
       2.982285411980e-02       2.289283030527e+04 
       2.996057289324e-02       2.276414869320e+04 
       3.009913680295e-02       2.263576580567e+04 
       3.023857295676e-02       2.250775335185e+04 
       3.037890960146e-02       2.238016791482e+04 
       3.052017618537e-02       2.225288641472e+04 
       3.066240342530e-02       2.212588030531e+04 
       3.080562337815e-02       2.199928655317e+04 
       3.094986951762e-02       2.187310864483e+04 
       3.109517681642e-02       2.174723765422e+04 
       3.124158183453e-02       2.162157403377e+04 
       3.138912281398e-02       2.149648928917e+04 
       3.153783978074e-02       2.137163729897e+04 
       3.168777465441e-02       2.124714529865e+04 
       3.183897136638e-02       2.112306680101e+04 
       3.199147598725e-02       2.099929160381e+04 
       3.214533686446e-02       2.087580634626e+04 
       3.230060477107e-02       2.075267149620e+04 
       3.245733306665e-02       2.062983038740e+04 
       3.261557787183e-02       2.050735321153e+04 
       3.277539825743e-02       2.038517589774e+04 
       3.293685645010e-02       2.026331012585e+04 
       3.310001805588e-02       2.014184708993e+04 
       3.326495230372e-02       2.002061955467e+04 
       3.343173231110e-02       1.989960432875e+04 
       3.360043537418e-02       1.977907691010e+04 
       3.377114328510e-02       1.965875544486e+04 
       3.394394267976e-02       1.953874141172e+04 
       3.411892541925e-02       1.941897369722e+04 
       3.429618900927e-02       1.929943417309e+04 
       3.447583706174e-02       1.918018579824e+04 
       3.465797980405e-02       1.906123379827e+04 
       3.484273464158e-02       1.894238835480e+04 
       3.503022678052e-02       1.882380804410e+04 
       3.522058991862e-02       1.870558264164e+04 
       3.541396701276e-02       1.858748691703e+04 
       3.561051113393e-02       1.846953902442e+04 
       3.581038642135e-02       1.835181468602e+04 
       3.601376914976e-02       1.823430679204e+04 
       3.622084892604e-02       1.811686924609e+04 
       3.643183003422e-02       1.799956485612e+04 
       3.664693295074e-02       1.788244470409e+04 
       3.686639605641e-02       1.776544490245e+04 
       3.709047757554e-02       1.764845500213e+04 
       3.731945777865e-02       1.753162596734e+04 
       3.755364149213e-02       1.741476915418e+04 
       3.779336096608e-02       1.729797218715e+04 
       3.803897916211e-02       1.718110750112e+04 
       3.829089353506e-02       1.706419055988e+04 
       3.854954039769e-02       1.694732482732e+04 
       3.881539997651e-02       1.683025257877e+04 
       3.908900228993e-02       1.671323304215e+04 
       3.937093400896e-02       1.659597531821e+04 
       3.966184649719e-02       1.647842637303e+04 
       3.996246527183e-02       1.636068598686e+04 
       4.027360118543e-02       1.624263277386e+04 
       4.059616370000e-02       1.612429907326e+04 
       4.093117671756e-02       1.600538734593e+04 
       4.127979754791e-02       1.588603463365e+04 
       4.164333974393e-02       1.576592601304e+04 
       4.202330072425e-02       1.564540178453e+04 
       4.242139534584e-02       1.552399939424e+04 
       4.283959689499e-02       1.540154088698e+04 
       4.328018735044e-02       1.527793564035e+04 
       4.374581924762e-02       1.515295315302e+04 
       4.423959204258e-02       1.502631066239e+04 
       4.476514652134e-02       1.489760499577e+04 
