# Matter power spectrum P(k) at redshift z=0
# for k=9.33742e-06 to 0.563054 h/Mpc,
# number of wavenumbers equal to 565
#    1:k (h/Mpc)              2:P (Mpc/h)^3        
       9.337416146402e-06       7.276609681290e+01 
       2.085994784706e-05       1.579820393814e+02 
       3.241489688573e-05       2.416664479437e+02 
       4.402712955785e-05       3.246628449055e+02 
       5.572184170165e-05       4.074317614789e+02 
       6.752473861066e-05       4.903055611764e+02 
       7.946221958903e-05       5.735593822413e+02 
       9.156156914488e-05       6.574395760134e+02 
       1.038511568332e-04       7.421778804988e+02 
       1.163606477807e-04       8.279995857919e+02 
       1.291212259419e-04       9.151288450012e+02 
       1.421658321400e-04       1.003792487682e+03 
       1.555294189220e-04       1.094223020225e+03 
       1.692492241868e-04       1.186661176080e+03 
       1.833650654077e-04       1.281358026695e+03 
       1.979196560240e-04       1.378577315556e+03 
       2.129589451930e-04       1.478597092246e+03 
       2.285324815078e-04       1.581711933411e+03 
       2.446938004371e-04       1.688234555389e+03 
       2.615008340442e-04       1.798497653148e+03 
       2.790163398983e-04       1.912855581897e+03 
       2.973083438702e-04       2.031685844953e+03 
       3.164505885931e-04       2.155390413079e+03 
       3.365229756073e-04       2.284396653691e+03 
       3.576119844769e-04       2.419157957358e+03 
       3.798110463613e-04       2.560153648723e+03 
       4.032208426245e-04       2.707888293351e+03 
       4.279494911676e-04       2.862889819793e+03 
       4.541125746170e-04       3.025706689497e+03 
       4.818329558980e-04       3.196903446178e+03 
       5.112403191518e-04       3.377054667414e+03 
       5.424703689667e-04       3.566736978126e+03 
       5.756636206163e-04       3.766518971389e+03 
       6.109637210251e-04       3.976948996401e+03 
       6.485152572784e-04       4.198540813626e+03 
       6.884610390624e-04       4.431757339734e+03 
       7.309388846362e-04       4.676993006929e+03 
       7.760779956727e-04       4.934555139886e+03 
       8.239950701523e-04       5.204645516318e+03 
       8.747903662024e-04       5.487342999720e+03 
       9.285439817849e-04       5.782588594161e+03 
       9.853126424504e-04       6.090174344492e+03 
       1.045127280826e-03       6.409737644678e+03 
       1.107991641521e-03       6.740762013150e+03 
       1.173882056782e-03       7.082585714562e+03 
       1.242748423908e-03       7.434387544477e+03 
       1.314516294514e-03       7.795274075184e+03 
       1.389089879583e-03       8.164288329016e+03 
       1.466355700585e-03       8.540401694284e+03 
       1.546186585091e-03       8.922563545098e+03 
       1.628445715098e-03       9.309726380827e+03 
       1.712990479071e-03       9.700865462481e+03 
       1.799675941627e-03       1.009499462927e+04 
       1.888357813922e-03       1.049117926300e+04 
       1.978894872357e-03       1.088854336296e+04 
       2.071150825856e-03       1.128627737288e+04 
       2.164995669840e-03       1.168364066445e+04 
       2.260306588342e-03       1.207996400078e+04 
       2.356968476677e-03       1.247464836790e+04 
       2.454874158728e-03       1.286716122271e+04 
       2.553924368417e-03       1.325702782023e+04 
       2.654027556855e-03       1.364384034881e+04 
       2.755099577067e-03       1.402722132091e+04 
       2.857063288453e-03       1.440687054879e+04 
       2.959848114068e-03       1.478250920885e+04 
       3.063389575899e-03       1.515390450008e+04 
       3.167628826639e-03       1.552085061179e+04 
       3.272512191095e-03       1.588318968583e+04 
       3.377990726115e-03       1.624077700004e+04 
       3.484019804671e-03       1.659348911526e+04 
       3.590558727309e-03       1.694122395478e+04 
       3.697570362393e-03       1.728391004967e+04 
       3.805020815320e-03       1.762148177113e+04 
       3.912879126008e-03       1.795389089086e+04 
       4.021116993413e-03       1.828110502309e+04 
       4.129708525472e-03       1.860310049964e+04 
       4.238630012691e-03       1.891985788160e+04 
       4.347859723519e-03       1.923138392096e+04 
       4.457377719673e-03       1.953767192795e+04 
       4.567165689614e-03       1.983873287253e+04 
       4.677206798488e-03       2.013458976192e+04 
       4.787485552938e-03       2.042525534622e+04 
       4.897987679321e-03       2.071075533540e+04 
       5.008700013995e-03       2.099112710082e+04 
       5.119610404442e-03       2.126639260814e+04 
       5.230707620115e-03       2.153659444522e+04 
       5.341981272019e-03       2.180176974717e+04 
       5.453421740120e-03       2.206195439848e+04 
       5.565020107763e-03       2.231718967783e+04 
       5.676768102390e-03       2.256751832313e+04 
       5.788658041898e-03       2.281298104697e+04 
       5.900682786069e-03       2.305362583708e+04 
       6.012835692529e-03       2.328950375053e+04 
       6.125110576812e-03       2.352065302587e+04 
       6.237501676077e-03       2.374711968025e+04 
       6.350003616132e-03       2.396896315263e+04 
       6.462611381433e-03       2.418621280433e+04 
       6.575320287752e-03       2.439892493048e+04 
       6.688125957269e-03       2.460716270201e+04 
       6.801024295831e-03       2.481095727534e+04 
       6.914011472186e-03       2.501036277048e+04 
       7.027083898997e-03       2.520542646708e+04 
       7.140238215461e-03       2.539619476997e+04 
       7.253471271389e-03       2.558270997057e+04 
       7.366780112611e-03       2.576503437062e+04 
       7.480161967577e-03       2.594319997252e+04 
       7.593614235053e-03       2.611727156451e+04 
       7.707134472806e-03       2.628726623218e+04 
       7.820720387191e-03       2.645325493410e+04 
       7.934369823566e-03       2.661527240079e+04 
       8.048080757452e-03       2.677336531950e+04 
       8.161851286377e-03       2.692757447570e+04 
       8.275679622355e-03       2.707796384371e+04 
       8.389564084927e-03       2.722457426265e+04 
       8.503503094733e-03       2.736743287497e+04 
       8.617495167559e-03       2.750658789218e+04 
       8.731538908834e-03       2.764208741517e+04 
       8.845633008521e-03       2.777397791853e+04 
       8.959776236387e-03       2.790228789901e+04 
       9.073967437609e-03       2.802707338258e+04 
       9.188205528705e-03       2.814837155149e+04 
       9.302489493744e-03       2.826622510563e+04 
       9.416818380829e-03       2.838065995075e+04 
       9.531191298829e-03       2.849174060591e+04 
       9.645607414336e-03       2.859948869536e+04 
       9.760065948831e-03       2.870394165736e+04 
       9.874566176053e-03       2.880515228551e+04 
       9.989107419545e-03       2.890313751982e+04 
       1.010368905036e-02       2.899796428447e+04 
       1.021831048494e-02       2.908965286526e+04 
       1.033297118313e-02       2.917823883720e+04 
       1.044767064631e-02       2.926376637646e+04 
       1.056240841569e-02       2.934626720554e+04 
       1.067718407069e-02       2.942578524558e+04 
       1.079199722745e-02       2.950234653498e+04 
       1.090684753739e-02       2.957599295246e+04 
       1.102173468598e-02       2.964676628266e+04 
       1.113665839145e-02       2.971468770028e+04 
       1.125161840369e-02       2.977979522427e+04 
       1.136661450320e-02       2.984211621847e+04 
       1.148164650010e-02       2.990171767668e+04 
       1.159671423320e-02       2.995858476620e+04 
       1.171181756917e-02       3.001278480323e+04 
       1.182695640173e-02       3.006433437420e+04 
       1.194213065095e-02       3.011327787143e+04 
       1.205734026253e-02       3.015962932219e+04 
       1.217258520717e-02       3.020343642862e+04 
       1.228786548004e-02       3.024472503955e+04 
       1.240318110019e-02       3.028354263191e+04 
       1.251853211005e-02       3.031990881029e+04 
       1.263391857501e-02       3.035383246085e+04 
       1.274934058301e-02       3.038538423660e+04 
       1.286479824409e-02       3.041457977968e+04 
       1.298029169014e-02       3.044144008128e+04 
       1.309582107449e-02       3.046601558630e+04 
       1.321138657172e-02       3.048830434004e+04 
       1.332698837733e-02       3.050835726639e+04 
       1.344262670757e-02       3.052619564421e+04 
       1.355830179920e-02       3.054183517420e+04 
       1.367401390937e-02       3.055532957457e+04 
       1.378976331544e-02       3.056669342929e+04 
       1.390555031485e-02       3.057596321933e+04 
       1.402137522507e-02       3.058316389859e+04 
       1.413723838347e-02       3.058832351462e+04 
       1.425314014730e-02       3.059146464297e+04 
       1.436908089365e-02       3.059261987981e+04 
       1.448506101945e-02       3.059181051526e+04 
       1.460108094145e-02       3.058906574975e+04 
       1.471714109628e-02       3.058440880242e+04 
       1.483324194046e-02       3.057789367796e+04 
       1.494938395051e-02       3.056951862528e+04 
       1.506556762300e-02       3.055929254150e+04 
       1.518179347465e-02       3.054728767347e+04 
       1.529806204246e-02       3.053351336987e+04 
       1.541437388386e-02       3.051796902903e+04 
       1.553072957682e-02       3.050070263457e+04 
       1.564712972006e-02       3.048174145344e+04 
       1.576357493321e-02       3.046109608072e+04 
       1.588006585701e-02       3.043881002733e+04 
       1.599660315355e-02       3.041489754968e+04 
       1.611318750647e-02       3.038938080748e+04 
       1.622981962126e-02       3.036228632488e+04 
       1.634650022546e-02       3.033362091456e+04 
       1.646323006900e-02       3.030346048350e+04 
       1.658000992444e-02       3.027176505514e+04 
       1.669684058736e-02       3.023859745835e+04 
       1.681372287660e-02       3.020394044571e+04 
       1.693065763469e-02       3.016791677627e+04 
       1.704764572815e-02       3.013042143285e+04 
       1.716468804788e-02       3.009156305641e+04 
       1.728178550961e-02       3.005131051847e+04 
       1.739893905422e-02       3.000972089864e+04 
       1.751614964825e-02       2.996680910724e+04 
       1.763341828429e-02       2.992262274451e+04 
       1.775074598149e-02       2.987714699198e+04 
       1.786813378600e-02       2.983041021784e+04 
       1.798558277149e-02       2.978241989387e+04 
       1.810309403968e-02       2.973320560100e+04 
       1.822066872085e-02       2.968282379427e+04 
       1.833830797440e-02       2.963126133106e+04 
       1.845601298946e-02       2.957855927440e+04 
       1.857378498542e-02       2.952471286221e+04 
       1.869162521262e-02       2.946979799051e+04 
       1.880953495294e-02       2.941367664658e+04 
       1.892751552044e-02       2.935657070384e+04 
       1.904556826211e-02       2.929841765699e+04 
       1.916369455850e-02       2.923920486291e+04 
       1.928189582448e-02       2.917899509670e+04 
       1.940017350999e-02       2.911777514459e+04 
       1.951852910079e-02       2.905561959429e+04 
       1.963696411929e-02       2.899247721677e+04 
       1.975548012534e-02       2.892843405023e+04 
       1.987407871711e-02       2.886344917636e+04 
       1.999276153193e-02       2.879756712617e+04 
       2.011153024725e-02       2.873074533339e+04 
       2.023038658152e-02       2.866314608177e+04 
       2.034933229516e-02       2.859471914777e+04 
       2.046836919159e-02       2.852545949320e+04 
       2.058749911822e-02       2.845531024052e+04 
       2.070672396753e-02       2.838444622565e+04 
       2.082604567815e-02       2.831287122504e+04 
       2.094546623598e-02       2.824039335480e+04 
       2.106498767536e-02       2.816722891586e+04 
       2.118461208029e-02       2.809341641614e+04 
       2.130434158562e-02       2.801882437450e+04 
       2.142417837837e-02       2.794359266921e+04 
       2.154412469904e-02       2.786759295021e+04 
       2.166418284297e-02       2.779105228037e+04 
       2.178435516171e-02       2.771384364153e+04 
       2.190464406455e-02       2.763601057883e+04 
       2.202505201992e-02       2.755754667795e+04 
       2.214558155704e-02       2.747850113457e+04 
       2.226623526742e-02       2.739889391189e+04 
       2.238701580660e-02       2.731872767323e+04 
       2.250792589580e-02       2.723795438749e+04 
       2.262896832368e-02       2.715675152329e+04 
       2.275014594821e-02       2.707495912704e+04 
       2.287146169852e-02       2.699264682560e+04 
       2.299291857683e-02       2.690990829006e+04 
       2.311451966052e-02       2.682667876167e+04 
       2.323626810414e-02       2.674295187943e+04 
       2.335816714165e-02       2.665890860154e+04 
       2.348022008857e-02       2.657423536203e+04 
       2.360243034433e-02       2.648923213194e+04 
       2.372480139464e-02       2.640386580285e+04 
       2.384733681398e-02       2.631804734327e+04 
       2.397004026814e-02       2.623189876310e+04 
       2.409291551688e-02       2.614535757454e+04 
       2.421596641669e-02       2.605842159347e+04 
       2.433919692360e-02       2.597120926257e+04 
       2.446261109616e-02       2.588364299319e+04 
       2.458621309849e-02       2.579579216444e+04 
       2.471000720344e-02       2.570753301390e+04 
       2.483399779588e-02       2.561900625693e+04 
       2.495818937614e-02       2.553036045299e+04 
       2.508258656349e-02       2.544127062732e+04 
       2.520719409987e-02       2.535199557799e+04 
       2.533201685369e-02       2.526239187228e+04 
       2.545705982378e-02       2.517261576275e+04 
       2.558232814349e-02       2.508264122552e+04 
       2.570782708500e-02       2.499242758852e+04 
       2.583356206377e-02       2.490191598111e+04 
       2.595953864312e-02       2.481127814502e+04 
       2.608576253906e-02       2.472047587569e+04 
       2.621223962529e-02       2.462948398664e+04 
       2.633897593843e-02       2.453830633265e+04 
       2.646597768337e-02       2.444697074295e+04 
       2.659325123898e-02       2.435547764674e+04 
       2.672080316395e-02       2.426384228054e+04 
       2.684864020293e-02       2.417207101634e+04 
       2.697676929290e-02       2.408022512546e+04 
       2.710519756984e-02       2.398818871928e+04 
       2.723393237565e-02       2.389607713172e+04 
       2.736298126543e-02       2.380389484201e+04 
       2.749235201502e-02       2.371159285821e+04 
       2.762205262890e-02       2.361925651808e+04 
       2.775209134843e-02       2.352679631646e+04 
       2.788247666051e-02       2.343423391891e+04 
       2.801321730656e-02       2.334168183362e+04 
       2.814432229195e-02       2.324904399016e+04 
       2.827580089588e-02       2.315637214134e+04 
       2.840766268169e-02       2.306361524240e+04 
       2.853991750770e-02       2.297088805487e+04 
       2.867257553850e-02       2.287808313113e+04 
       2.880564725685e-02       2.278528362093e+04 
       2.893914347611e-02       2.269246793817e+04 
       2.907307535330e-02       2.259966701549e+04 
       2.920745440285e-02       2.250681764372e+04 
       2.934229251090e-02       2.241393511543e+04 
       2.947760195051e-02       2.232119402779e+04 
       2.961339539748e-02       2.222835769442e+04 
       2.974968594710e-02       2.213552384747e+04 
       2.988648713169e-02       2.204278080470e+04 
       3.002381293912e-02       2.195001486640e+04 
       3.016167783230e-02       2.185728773756e+04 
       3.030009676968e-02       2.176453935538e+04 
       3.043908522693e-02       2.167185122983e+04 
       3.057865921972e-02       2.157929580655e+04 
       3.071883532789e-02       2.148665782934e+04 
       3.085963072081e-02       2.139412542189e+04 
       3.100106318436e-02       2.130170969769e+04 
       3.114315114927e-02       2.120925132205e+04 
       3.128591372128e-02       2.111692783390e+04 
       3.142937071296e-02       2.102463685739e+04 
       3.157354267742e-02       2.093234303200e+04 
       3.171845094410e-02       2.084018196086e+04 
       3.186411765668e-02       2.074806214449e+04 
       3.201056581337e-02       2.065599999855e+04 
       3.215781930966e-02       2.056401206625e+04 
       3.230590298378e-02       2.047205255372e+04 
       3.245484266506e-02       2.038021161715e+04 
       3.260466522543e-02       2.028840665423e+04 
       3.275539863425e-02       2.019670623805e+04 
       3.290707201679e-02       2.010509749342e+04 
       3.305971571663e-02       2.001348272930e+04 
       3.321336136232e-02       1.992198957305e+04 
       3.336804193857e-02       1.983052339587e+04 
       3.352379186248e-02       1.973921126385e+04 
       3.368064706513e-02       1.964790258523e+04 
       3.383864507899e-02       1.955663746425e+04 
       3.399782513173e-02       1.946546046985e+04 
       3.415822824693e-02       1.937434682202e+04 
       3.431989735233e-02       1.928327386410e+04 
       3.448287739626e-02       1.919228191992e+04 
       3.464721547308e-02       1.910137312339e+04 
       3.481296095840e-02       1.901040775415e+04 
       3.498016565499e-02       1.891963378587e+04 
       3.514888395050e-02       1.882876493418e+04 
       3.531917298808e-02       1.873799459568e+04 
       3.549109285110e-02       1.864728021071e+04 
       3.566470676351e-02       1.855660824514e+04 
       3.584008130741e-02       1.846590647931e+04 
       3.601728665956e-02       1.837527360108e+04 
       3.619639684883e-02       1.828456573595e+04 
       3.637749003689e-02       1.819399261339e+04 
       3.656064882465e-02       1.810326737567e+04 
       3.674596058727e-02       1.801261221808e+04 
       3.693351784096e-02       1.792193123602e+04 
       3.712341864533e-02       1.783121010455e+04 
       3.731576704524e-02       1.774048784567e+04 
       3.751067355707e-02       1.764971521311e+04 
       3.770825570460e-02       1.755882519306e+04 
       3.790863861082e-02       1.746788093120e+04 
       3.811195565247e-02       1.737686946008e+04 
       3.831834918561e-02       1.728575830451e+04 
       3.852797135138e-02       1.719453278283e+04 
       3.874098497259e-02       1.710315783346e+04 
       3.895756455375e-02       1.701159819942e+04 
       3.917789739867e-02       1.691996027447e+04 
       3.940218486253e-02       1.682809200542e+04 
       3.963064375782e-02       1.673599500782e+04 
       3.986350793706e-02       1.664376268289e+04 
       4.010103007911e-02       1.655122079169e+04 
       4.034348371052e-02       1.645839494981e+04 
       4.059116549952e-02       1.636530052304e+04 
       4.084439786663e-02       1.627184222574e+04 
       4.110353196479e-02       1.617800694549e+04 
       4.136895109191e-02       1.608379315665e+04 
       4.164107461131e-02       1.598920412375e+04 
       4.192036247110e-02       1.589408026452e+04 
       4.220732043226e-02       1.579841243999e+04 
       4.250250613896e-02       1.570215137852e+04 
       4.280653619373e-02       1.560536746896e+04 
       4.312009443664e-02       1.550781783212e+04 
       4.344394167341e-02       1.540951554477e+04 
       4.377892715472e-02       1.531040645386e+04 
       4.412600218198e-02       1.521036969842e+04 
       4.448623630676e-02       1.510935644409e+04 
       4.486083670802e-02       1.500718866710e+04 
       4.525117148080e-02       1.490386923877e+04 
       4.565879775964e-02       1.479913623846e+04 
       4.608549584268e-02       1.469286287926e+04 
       4.653331078943e-02       1.458486277812e+04 
       4.700460335294e-02       1.447495983218e+04 
       4.750211258903e-02       1.436280130912e+04 
       4.802903307018e-02       1.424819418236e+04 
       4.858911031164e-02       1.413069446108e+04 
       4.918675874383e-02       1.400979054528e+04 
       4.982720720002e-02       1.388493536762e+04 
       5.051667711212e-02       1.375537044363e+04 
       5.126259773753e-02       1.362013770036e+04 
