# Matter power spectrum P(k) at redshift z=0
# for k=1.04205e-05 to 0.625833 h/Mpc,
# number of wavenumbers equal to 560
#    1:k (h/Mpc)              2:P (Mpc/h)^3        
       1.042053604559e-05       5.172135931258e+01 
       2.328188172384e-05       1.123051130909e+02 
       3.618828362152e-05       1.718462974894e+02 
       4.917436153800e-05       2.309775614466e+02 
       6.227530584353e-05       2.900595156340e+02 
       7.552719031110e-05       3.493639517453e+02 
       8.896729491789e-05       4.091218733255e+02 
       1.026344428979e-04       4.695477262536e+02 
       1.165693563601e-04       5.308481994220e+02 
       1.308150348197e-04       5.932290217600e+02 
       1.454171609970e-04       6.568998175223e+02 
       1.604245381810e-04       7.220771471663e+02 
       1.758895632795e-04       7.889875112651e+02 
       1.918687393175e-04       8.578706831584e+02 
       2.084232304968e-04       9.289816418471e+02 
       2.256194618778e-04       1.002593226528e+03 
       2.435297641066e-04       1.078999067177e+03 
       2.622330611850e-04       1.158515936962e+03 
       2.818155957955e-04       1.241486403233e+03 
       3.023716818204e-04       1.328281310873e+03 
       3.240044670687e-04       1.419302229914e+03 
       3.468266804420e-04       1.514983598821e+03 
       3.709613264578e-04       1.615794444284e+03 
       3.965422759566e-04       1.722239484616e+03 
       4.237146849455e-04       1.834859226424e+03 
       4.526351543994e-04       1.954228824656e+03 
       4.834715237315e-04       2.080955113386e+03 
       5.164021720600e-04       2.215671471249e+03 
       5.516146883018e-04       2.359029927532e+03 
       5.893037692660e-04       2.511690045594e+03 
       6.296682215254e-04       2.674304224501e+03 
       6.729069857687e-04       2.847499386679e+03 
       7.192141780227e-04       3.031855079881e+03 
       7.687732526048e-04       3.227878917495e+03 
       8.217505307473e-04       3.435980511984e+03 
       8.782884891322e-04       3.656445754695e+03 
       9.384993351168e-04       3.889413721228e+03 
       1.002459474021e-03       4.134858704282e+03 
       1.070205464933e-03       4.392579608390e+03 
       1.141731946996e-03       4.662198424464e+03 
       1.216991806496e-03       4.943168350196e+03 
       1.295898583385e-03       5.234791122592e+03 
       1.378330841477e-03       5.536224052934e+03 
       1.464138008050e-03       5.846536964336e+03 
       1.553147067635e-03       6.164765338600e+03 
       1.645169483662e-03       6.489887380236e+03 
       1.740007804086e-03       6.820875188566e+03 
       1.837461548415e-03       7.156718791766e+03 
       1.937332134561e-03       7.496444776920e+03 
       2.039426752457e-03       7.839131391614e+03 
       2.143561208041e-03       8.183917450008e+03 
       2.249561839104e-03       8.530009111145e+03 
       2.357266646385e-03       8.876681370920e+03 
       2.466525796588e-03       9.223277676243e+03 
       2.577201647993e-03       9.569209412582e+03 
       2.689168431954e-03       9.913949820612e+03 
       2.802311701415e-03       1.025703253236e+04 
       2.916527634644e-03       1.059804519435e+04 
       3.031722261347e-03       1.093662628422e+04 
       3.147810660293e-03       1.127245721489e+04 
       3.264716162896e-03       1.160526514097e+04 
       3.382369585758e-03       1.193480677994e+04 
       3.500708506531e-03       1.226087680372e+04 
       3.619676591091e-03       1.258329508277e+04 
       3.739222975577e-03       1.290190955079e+04 
       3.859301703713e-03       1.321658817656e+04 
       3.979871217839e-03       1.352722095311e+04 
       4.100893900812e-03       1.383371959871e+04 
       4.222335665221e-03       1.413600090432e+04 
       4.344165586035e-03       1.443400560713e+04 
       4.466355572751e-03       1.472768357327e+04 
       4.588880077160e-03       1.501699714182e+04 
       4.711715833097e-03       1.530191260776e+04 
       4.834841624757e-03       1.558240780625e+04 
       4.958238080464e-03       1.585848684414e+04 
       5.081887489060e-03       1.613012675598e+04 
       5.205773636361e-03       1.639735163589e+04 
       5.329881659409e-03       1.666014428204e+04 
       5.454197916472e-03       1.691851777874e+04 
       5.578709871012e-03       1.717249725718e+04 
       5.703405987998e-03       1.742208937541e+04 
       5.828275641172e-03       1.766732241093e+04 
       5.953309030010e-03       1.790822042325e+04 
       6.078497105287e-03       1.814480518325e+04 
       6.203831502271e-03       1.837710589136e+04 
       6.329304480691e-03       1.860515318428e+04 
       6.454908870740e-03       1.882897017191e+04 
       6.580638024421e-03       1.904860199257e+04 
       6.706485771681e-03       1.926408324358e+04 
       6.832446380798e-03       1.947544096039e+04 
       6.958514522562e-03       1.968271071570e+04 
       7.084685237860e-03       1.988594121830e+04 
       7.210953908294e-03       2.008515082805e+04 
       7.337316229525e-03       2.028038605395e+04 
       7.463768187055e-03       2.047170467314e+04 
       7.590306034203e-03       2.065911741872e+04 
       7.716926272052e-03       2.084267365755e+04 
       7.843625631168e-03       2.102241268520e+04 
       7.970401054920e-03       2.119837356666e+04 
       8.097249684241e-03       2.137059125802e+04 
       8.224168843695e-03       2.153910701532e+04 
       8.351156028717e-03       2.170395966161e+04 
       8.478208893924e-03       2.186520180494e+04 
       8.605325242396e-03       2.202284257510e+04 
       8.732503015827e-03       2.217695077815e+04 
       8.859740285480e-03       2.232754409239e+04 
       8.987035243864e-03       2.247465327782e+04 
       9.114386197076e-03       2.261834533688e+04 
       9.241791557739e-03       2.275865468627e+04 
       9.369249838494e-03       2.289558738087e+04 
       9.496759645992e-03       2.302922036007e+04 
       9.624319675345e-03       2.315955482128e+04 
       9.751928705001e-03       2.328665423122e+04 
       9.879585591996e-03       2.341054714999e+04 
       1.000728926757e-02       2.353125216593e+04 
       1.013503873309e-02       2.364883643092e+04 
       1.026283305629e-02       2.376330884886e+04 
       1.039067136780e-02       2.387472804024e+04 
       1.051855285785e-02       2.398311716961e+04 
       1.064647677333e-02       2.408849843640e+04 
       1.077444241493e-02       2.419093093844e+04 
       1.090244913461e-02       2.429042848325e+04 
       1.103049633313e-02       2.438703973650e+04 
       1.115858345786e-02       2.448077999695e+04 
       1.128671000065e-02       2.457170116132e+04 
       1.141487549595e-02       2.465982826970e+04 
       1.154307951894e-02       2.474518837474e+04 
       1.167132168390e-02       2.482782158901e+04 
       1.179960164265e-02       2.490776518892e+04 
       1.192791908306e-02       2.498503130246e+04 
       1.205627372775e-02       2.505967019541e+04 
       1.218466533281e-02       2.513170016420e+04 
       1.231309368661e-02       2.520117034354e+04 
       1.244155860879e-02       2.526807636074e+04 
       1.257005994916e-02       2.533250033429e+04 
       1.269859758683e-02       2.539443233708e+04 
       1.282717142933e-02       2.545389892221e+04 
       1.295578141180e-02       2.551096192340e+04 
       1.308442749623e-02       2.556561988645e+04 
       1.321310967081e-02       2.561792125581e+04 
       1.334182794927e-02       2.566788301436e+04 
       1.347058237030e-02       2.571553064526e+04 
       1.359937299702e-02       2.576089738760e+04 
       1.372819991647e-02       2.580399947345e+04 
       1.385706323918e-02       2.584490719811e+04 
       1.398596309874e-02       2.588360930990e+04 
       1.411489965145e-02       2.592014739502e+04 
       1.424387307595e-02       2.595452551502e+04 
       1.437288357296e-02       2.598682334682e+04 
       1.450193136495e-02       2.601701919632e+04 
       1.463101669596e-02       2.604515254053e+04 
       1.476013983135e-02       2.607125110240e+04 
       1.488930105764e-02       2.609534596843e+04 
       1.501850068234e-02       2.611742863372e+04 
       1.514773903383e-02       2.613760126663e+04 
       1.527701646126e-02       2.615582050203e+04 
       1.540633333445e-02       2.617213151610e+04 
       1.553569004387e-02       2.618655462282e+04 
       1.566508700056e-02       2.619910996193e+04 
       1.579452463615e-02       2.620984632261e+04 
       1.592400340288e-02       2.621878743595e+04 
       1.605352377357e-02       2.622591739372e+04 
       1.618308624175e-02       2.623129731563e+04 
       1.631269132167e-02       2.623494424761e+04 
       1.644233954840e-02       2.623685259312e+04 
       1.657203147797e-02       2.623711584805e+04 
       1.670176768742e-02       2.623565869567e+04 
       1.683154877504e-02       2.623256676895e+04 
       1.696137536044e-02       2.622788007248e+04 
       1.709124808481e-02       2.622161270318e+04 
       1.722116761103e-02       2.621374045352e+04 
       1.735113462394e-02       2.620431396029e+04 
       1.748114983058e-02       2.619334663097e+04 
       1.761121396036e-02       2.618089203842e+04 
       1.774132776541e-02       2.616694379550e+04 
       1.787149202080e-02       2.615149617962e+04 
       1.800170752486e-02       2.613469195814e+04 
       1.813197509949e-02       2.611640335939e+04 
       1.826229559049e-02       2.609668120956e+04 
       1.839266986788e-02       2.607561790244e+04 
       1.852309882630e-02       2.605321743426e+04 
       1.865358338538e-02       2.602945565563e+04 
       1.878412449010e-02       2.600437826519e+04 
       1.891472311126e-02       2.597800991936e+04 
       1.904538024587e-02       2.595032967515e+04 
       1.917609691759e-02       2.592143722535e+04 
       1.930687417724e-02       2.589128001961e+04 
       1.943771310325e-02       2.585991024306e+04 
       1.956861480218e-02       2.582733571156e+04 
       1.969958040920e-02       2.579360802149e+04 
       1.983061108870e-02       2.575870437551e+04 
       1.996170803478e-02       2.572264921177e+04 
       2.009287247187e-02       2.568552283276e+04 
       2.022410565530e-02       2.564722195308e+04 
       2.035540887196e-02       2.560788344088e+04 
       2.048678344089e-02       2.556743469636e+04 
       2.061823071397e-02       2.552601747424e+04 
       2.074975207661e-02       2.548349225651e+04 
       2.088134894841e-02       2.544001043986e+04 
       2.101302278395e-02       2.539550719249e+04 
       2.114477507350e-02       2.535005839914e+04 
       2.127660734379e-02       2.530363467277e+04 
       2.140852115886e-02       2.525627665511e+04 
       2.154051812081e-02       2.520798319376e+04 
       2.167259987073e-02       2.515879289230e+04 
       2.180476808952e-02       2.510871033467e+04 
       2.193702449882e-02       2.505776795862e+04 
       2.206937086194e-02       2.500596224126e+04 
       2.220180898484e-02       2.495333573259e+04 
       2.233434071708e-02       2.489988157425e+04 
       2.246696795291e-02       2.484559194323e+04 
       2.259969263226e-02       2.479057247327e+04 
       2.273251674187e-02       2.473472049979e+04 
       2.286544231643e-02       2.467818105456e+04 
       2.299847143967e-02       2.462085954370e+04 
       2.313160624564e-02       2.456277100954e+04 
       2.326484891988e-02       2.450407282032e+04 
       2.339820170072e-02       2.444461277139e+04 
       2.353166688060e-02       2.438445601270e+04 
       2.366524680740e-02       2.432366264891e+04 
       2.379894388585e-02       2.426230300828e+04 
       2.393276057898e-02       2.420013732144e+04 
       2.406669940959e-02       2.413743797635e+04 
       2.420076296179e-02       2.407410105662e+04 
       2.433495388259e-02       2.401020088383e+04 
       2.446927488355e-02       2.394580669251e+04 
       2.460372874242e-02       2.388072934756e+04 
       2.473831830495e-02       2.381519391468e+04 
       2.487304648663e-02       2.374902683451e+04 
       2.500791627461e-02       2.368242041299e+04 
       2.514293072954e-02       2.361519632649e+04 
       2.527809298767e-02       2.354752772901e+04 
       2.541340626278e-02       2.347947954847e+04 
       2.554887384839e-02       2.341083121586e+04 
       2.568449911992e-02       2.334180209736e+04 
       2.582028553695e-02       2.327226580189e+04 
       2.595623664558e-02       2.320229232621e+04 
       2.609235608085e-02       2.313193254264e+04 
       2.622864756923e-02       2.306121757183e+04 
       2.636511493127e-02       2.298996627468e+04 
       2.650176208422e-02       2.291841001296e+04 
       2.663859304485e-02       2.284653696196e+04 
       2.677561193235e-02       2.277417113137e+04 
       2.691282297124e-02       2.270154326767e+04 
       2.705023049456e-02       2.262860017939e+04 
       2.718783894699e-02       2.255534005382e+04 
       2.732565288820e-02       2.248169235175e+04 
       2.746367699629e-02       2.240778393041e+04 
       2.760191607137e-02       2.233358857833e+04 
       2.774037503924e-02       2.225909312828e+04 
       2.787905895523e-02       2.218419325613e+04 
       2.801797300820e-02       2.210913232230e+04 
       2.815712252464e-02       2.203388695692e+04 
       2.829651297303e-02       2.195831978036e+04 
       2.843614996820e-02       2.188250649617e+04 
       2.857603927608e-02       2.180643672411e+04 
       2.871618681839e-02       2.173027594072e+04 
       2.885659867774e-02       2.165378868182e+04 
       2.899728110278e-02       2.157713591245e+04 
       2.913824051365e-02       2.150020413999e+04 
       2.927948350755e-02       2.142331660940e+04 
       2.942101686466e-02       2.134607713020e+04 
       2.956284755420e-02       2.126873826256e+04 
       2.970498274081e-02       2.119117139716e+04 
       2.984742979112e-02       2.111348916214e+04 
       2.999019628070e-02       2.103571105752e+04 
       3.013329000124e-02       2.095770732513e+04 
       3.027671896798e-02       2.087966138453e+04 
       3.042049142764e-02       2.080152983967e+04 
       3.056461586647e-02       2.072314646834e+04 
       3.070910101885e-02       2.064479767498e+04 
       3.085395587614e-02       2.056630300383e+04 
       3.099918969598e-02       2.048769149790e+04 
       3.114481201204e-02       2.040902029366e+04 
       3.129083264412e-02       2.033024535252e+04 
       3.143726170882e-02       2.025140872541e+04 
       3.158410963064e-02       2.017247127610e+04 
       3.173138715358e-02       2.009352744985e+04 
       3.187910535339e-02       2.001454649218e+04 
       3.202727565031e-02       1.993554188106e+04 
       3.217590982241e-02       1.985642862111e+04 
       3.232502001971e-02       1.977722565289e+04 
       3.247461877881e-02       1.969810190424e+04 
       3.262471903840e-02       1.961882274197e+04 
       3.277533415548e-02       1.953965085475e+04 
       3.292647792239e-02       1.946034653911e+04 
       3.307816458473e-02       1.938123666992e+04 
       3.323040886022e-02       1.930194135742e+04 
       3.338322595849e-02       1.922272563102e+04 
       3.353663160201e-02       1.914337903265e+04 
       3.369064204800e-02       1.906415858833e+04 
       3.384527411166e-02       1.898491178721e+04 
       3.400054519054e-02       1.890571349320e+04 
       3.415647329035e-02       1.882646041015e+04 
       3.431307705215e-02       1.874724111095e+04 
       3.447037578104e-02       1.866805892175e+04 
       3.462838947660e-02       1.858888074264e+04 
       3.478713886492e-02       1.850963123926e+04 
       3.494664543260e-02       1.843058947062e+04 
       3.510693146274e-02       1.835152769375e+04 
       3.526802007302e-02       1.827244849518e+04 
       3.542993525613e-02       1.819342444318e+04 
       3.559270192260e-02       1.811446503362e+04 
       3.575634594632e-02       1.803551267882e+04 
       3.592089421288e-02       1.795659921826e+04 
       3.608637467099e-02       1.787766396265e+04 
       3.625281638710e-02       1.779889230777e+04 
       3.642024960367e-02       1.772007007827e+04 
       3.658870580117e-02       1.764140610841e+04 
       3.675821776427e-02       1.756264475851e+04 
       3.692881965239e-02       1.748403263686e+04 
       3.710054707513e-02       1.740532882395e+04 
       3.727343717292e-02       1.732674640413e+04 
       3.744752870322e-02       1.724814151761e+04 
       3.762286213294e-02       1.716974479749e+04 
       3.779947973741e-02       1.709124169076e+04 
       3.797742570668e-02       1.701280152294e+04 
       3.815674625955e-02       1.693442265621e+04 
       3.833748976628e-02       1.685600884936e+04 
       3.851970688051e-02       1.677773966913e+04 
       3.870345068149e-02       1.669939379916e+04 
       3.888877682739e-02       1.662108682369e+04 
       3.907574372078e-02       1.654287415654e+04 
       3.926441268757e-02       1.646457212177e+04 
       3.945484817057e-02       1.638642640873e+04 
       3.964711793918e-02       1.630824729517e+04 
       3.984129331685e-02       1.623002451069e+04 
       4.003744942815e-02       1.615180760878e+04 
       4.023566546735e-02       1.607349923365e+04 
       4.043602499107e-02       1.599530968759e+04 
       4.063861623720e-02       1.591708416716e+04 
       4.084353247332e-02       1.583889485490e+04 
       4.105087237769e-02       1.576049870657e+04 
       4.126074045655e-02       1.568221070249e+04 
       4.147324750196e-02       1.560378938593e+04 
       4.168851109485e-02       1.552532690080e+04 
       4.190665615872e-02       1.544688892897e+04 
       4.212781557021e-02       1.536842083292e+04 
       4.235213083349e-02       1.528970778264e+04 
       4.257975282655e-02       1.521092555313e+04 
       4.281084262880e-02       1.513209748547e+04 
       4.304557244038e-02       1.505318379034e+04 
       4.328412660586e-02       1.497404297160e+04 
       4.352670275619e-02       1.489480627739e+04 
       4.377351308583e-02       1.481539441364e+04 
       4.402478578402e-02       1.473576428794e+04 
       4.428076664296e-02       1.465595478597e+04 
       4.454172086898e-02       1.457588885246e+04 
       4.480793512792e-02       1.449565492074e+04 
       4.507971986100e-02       1.441515140044e+04 
       4.535741191447e-02       1.433432799580e+04 
       4.564137753425e-02       1.425332015814e+04 
       4.593201578654e-02       1.417180632943e+04 
       4.622976247745e-02       1.408992837819e+04 
       4.653509465914e-02       1.400770362585e+04 
       4.684853582815e-02       1.392502897049e+04 
       4.717066194345e-02       1.384179481929e+04 
       4.750210841957e-02       1.375804713860e+04 
       4.784357828399e-02       1.367381422908e+04 
       4.819585173082e-02       1.358880967372e+04 
       4.855979735634e-02       1.350320654549e+04 
       4.893638542932e-02       1.341684637776e+04 
       4.932670363431e-02       1.332965033235e+04 
       4.973197583413e-02       1.324146061204e+04 
       5.015358453531e-02       1.315224945288e+04 
       5.059309791522e-02       1.306195296701e+04 
       5.105230249294e-02       1.297040965779e+04 
       5.153324281025e-02       1.287741627874e+04 
       5.203826984938e-02       1.278302132560e+04 
       5.257010036775e-02       1.268666446081e+04 
       5.313188989143e-02       1.258830271403e+04 
       5.372732278584e-02       1.248773228082e+04 
       5.436072359910e-02       1.238454655061e+04 
       5.503719468023e-02       1.227821309685e+04 
       5.576278572691e-02       1.216819445966e+04 
       5.654470099373e-02       1.205390709563e+04 
       5.739154850774e-02       1.193436198732e+04 
       5.831363103408e-02       1.180858213346e+04 
       5.932326739865e-02       1.167489219567e+04 
       6.043510927282e-02       1.153137952536e+04 
       6.166637346209e-02       1.137517606453e+04 
