# Matter power spectrum P(k) at redshift z=0
# for k=9.72844e-06 to 0.58552 h/Mpc,
# number of wavenumbers equal to 563
#    1:k (h/Mpc)              2:P (Mpc/h)^3        
       9.728439377107e-06       6.259854341268e+01 
       2.173427944627e-05       1.359151385166e+02 
       3.377678215080e-05       2.079381851125e+02 
       4.588408713832e-05       2.794097688760e+02 
       5.808473865715e-05       3.507427381907e+02 
       7.040790677882e-05       4.222403409169e+02 
       8.288361479947e-05       4.941574623706e+02 
       9.554297547468e-05       5.667254564485e+02 
       1.084184387644e-04       6.401646285771e+02 
       1.215440537902e-04       7.146916062699e+02 
       1.349557477247e-04       7.905242726484e+02 
       1.486916243261e-04       8.678854494269e+02 
       1.627922847762e-04       9.470059255380e+02 
       1.773011733477e-04       1.028127110700e+03 
       1.922649501743e-04       1.111503506426e+03 
       2.077338929766e-04       1.197405098216e+03 
       2.237623289255e-04       1.286119704677e+03 
       2.404090968322e-04       1.377955354458e+03 
       2.577380384056e-04       1.473242646344e+03 
       2.758185152905e-04       1.572337124164e+03 
       2.947259458191e-04       1.675621605311e+03 
       3.145423516823e-04       1.783508408909e+03 
       3.353568998539e-04       1.896441399638e+03 
       3.572664188761e-04       2.014897701707e+03 
       3.803758608808e-04       2.139388931696e+03 
       4.047986714211e-04       2.270461741383e+03 
       4.306570184574e-04       2.408697363153e+03 
       4.580818201347e-04       2.554709890146e+03 
       4.872124992232e-04       2.709142870342e+03 
       5.181963818549e-04       2.872663826589e+03 
       5.511876518267e-04       3.045956313925e+03 
       5.863457724838e-04       3.229709068404e+03 
       6.238332999200e-04       3.424602034351e+03 
       6.638130380233e-04       3.631289154396e+03 
       7.064445310075e-04       3.850378026030e+03 
       7.518799535334e-04       4.082407068952e+03 
       8.002595393928e-04       4.327821102034e+03 
       8.517067786286e-04       4.586946752962e+03 
       9.063236957287e-04       4.859969523758e+03 
       9.641865797809e-04       5.146914636051e+03 
       1.025342552554e-03       5.447633611495e+03 
       1.089807319266e-03       5.761798347727e+03 
       1.157564347391e-03       6.088903711839e+03 
       1.228565573697e-03       6.428279144332e+03 
       1.302733573943e-03       6.779083594472e+03 
       1.379964974867e-03       7.140386076629e+03 
       1.460134772793e-03       7.511169611556e+03 
       1.543101165387e-03       7.890342455880e+03 
       1.628710505612e-03       8.276780973452e+03 
       1.716802039453e-03       8.669356934904e+03 
       1.807212172881e-03       9.066960794381e+03 
       1.899778108382e-03       9.468520532643e+03 
       1.994340780406e-03       9.873017091905e+03 
       2.090747091376e-03       1.027949454073e+04 
       2.188851501153e-03       1.068706618968e+04 
       2.288517053340e-03       1.109491807347e+04 
       2.389615935134e-03       1.150230903595e+04 
       2.492029668075e-03       1.190856962709e+04 
       2.595649019579e-03       1.231310111121e+04 
       2.700373713328e-03       1.271536614095e+04 
       2.806112003153e-03       1.311489027479e+04 
       2.912780161862e-03       1.351125396252e+04 
       3.020301924511e-03       1.390409059742e+04 
       3.128607915414e-03       1.429307618160e+04 
       3.237635079810e-03       1.467793159337e+04 
       3.347326134506e-03       1.505841345652e+04 
       3.457629046719e-03       1.543431206165e+04 
       3.568496546542e-03       1.580544876436e+04 
       3.679885675672e-03       1.617166930394e+04 
       3.791757373119e-03       1.653284796418e+04 
       3.904076097227e-03       1.688887352749e+04 
       4.016809482507e-03       1.723966401890e+04 
       4.129928029222e-03       1.758514225236e+04 
       4.243404823391e-03       1.792525625717e+04 
       4.357215284762e-03       1.825996457589e+04 
       4.471336940293e-03       1.858923883298e+04 
       4.585749220774e-03       1.891305853058e+04 
       4.700433278346e-03       1.923141149178e+04 
       4.815371822806e-03       1.954429963429e+04 
       4.930548974786e-03       1.985173091509e+04 
       5.045950134044e-03       2.015371205359e+04 
       5.161561861251e-03       2.045026504404e+04 
       5.277371771859e-03       2.074141334396e+04 
       5.393368440752e-03       2.102717810001e+04 
       5.509541316502e-03       2.130759780479e+04 
       5.625880644233e-03       2.158270437370e+04 
       5.742377396138e-03       2.185252517703e+04 
       5.859023208851e-03       2.211711303814e+04 
       5.975810326929e-03       2.237650253723e+04 
       6.092731551815e-03       2.263072924776e+04 
       6.209780195674e-03       2.287985233141e+04 
       6.326950039632e-03       2.312391487083e+04 
       6.444235295914e-03       2.336295051382e+04 
       6.561630573523e-03       2.359702866064e+04 
       6.679130847062e-03       2.382618882382e+04 
       6.796731428400e-03       2.405047105337e+04 
       6.914427940892e-03       2.426994928624e+04 
       7.032216295889e-03       2.448465536984e+04 
       7.150092671324e-03       2.469464704282e+04 
       7.268053492168e-03       2.489997790043e+04 
       7.386095412566e-03       2.510070607280e+04 
       7.504215299498e-03       2.529686127374e+04 
       7.622410217828e-03       2.548850159562e+04 
       7.740677416594e-03       2.567569558814e+04 
       7.859014316434e-03       2.585848904036e+04 
       7.977418498044e-03       2.603692153008e+04 
       8.095887691568e-03       2.621103497135e+04 
       8.214419766837e-03       2.638090380519e+04 
       8.333012724388e-03       2.654656124581e+04 
       8.451664687187e-03       2.670806847486e+04 
       8.570373892991e-03       2.686545479363e+04 
       8.689138687306e-03       2.701880437968e+04 
       8.807957516882e-03       2.716814855016e+04 
       8.926828923694e-03       2.731352641485e+04 
       9.045751539384e-03       2.745498642313e+04 
       9.164724080107e-03       2.759258994579e+04 
       9.283745341765e-03       2.772637127795e+04 
       9.402814195584e-03       2.785637474708e+04 
       9.521929584018e-03       2.798266652672e+04 
       9.641090516939e-03       2.810526999762e+04 
       9.760296068111e-03       2.822425177879e+04 
       9.879545371904e-03       2.833963602270e+04 
       9.998837620249e-03       2.845146759451e+04 
       1.011817205980e-02       2.855980856156e+04 
       1.023754798930e-02       2.866468347101e+04 
       1.035696475712e-02       2.876614949244e+04 
       1.047642175898e-02       2.886423915214e+04 
       1.059591843583e-02       2.895898750873e+04 
       1.071545427186e-02       2.905045481820e+04 
       1.083502879264e-02       2.913867500976e+04 
       1.095464156345e-02       2.922368658326e+04 
       1.107429218761e-02       2.930553334260e+04 
       1.119398030506e-02       2.938425153190e+04 
       1.131370559091e-02       2.945987947197e+04 
       1.143346775420e-02       2.953246321025e+04 
       1.155326653664e-02       2.960203934549e+04 
       1.167310171153e-02       2.966864516908e+04 
       1.179297308271e-02       2.973231501976e+04 
       1.191288048354e-02       2.979308406424e+04 
       1.203282377609e-02       2.985099624900e+04 
       1.215280285021e-02       2.990609204916e+04 
       1.227281762281e-02       2.995838438758e+04 
       1.239286803712e-02       3.000793023183e+04 
       1.251295406199e-02       3.005476436651e+04 
       1.263307569135e-02       3.009891824052e+04 
       1.275323294357e-02       3.014043515072e+04 
       1.287342586095e-02       3.017933749511e+04 
       1.299365450926e-02       3.021565219369e+04 
       1.311391897728e-02       3.024944910555e+04 
       1.323421937640e-02       3.028072411414e+04 
       1.335455584026e-02       3.030954976352e+04 
       1.347492852440e-02       3.033592673664e+04 
       1.359533760596e-02       3.035990220246e+04 
       1.371578328345e-02       3.038149372938e+04 
       1.383626577645e-02       3.040074709872e+04 
       1.395678532545e-02       3.041768769014e+04 
       1.407734219163e-02       3.043234419152e+04 
       1.419793665675e-02       3.044475194115e+04 
       1.431856902295e-02       3.045493697777e+04 
       1.443923961270e-02       3.046294149465e+04 
       1.455994876871e-02       3.046877888425e+04 
       1.468069685383e-02       3.047250959270e+04 
       1.480148425106e-02       3.047412866087e+04 
       1.492231136348e-02       3.047368314997e+04 
       1.504317861430e-02       3.047121133905e+04 
       1.516408644685e-02       3.046672134020e+04 
       1.528503532464e-02       3.046022627895e+04 
       1.540602573141e-02       3.045183863776e+04 
       1.552705817121e-02       3.044151111036e+04 
       1.564813316849e-02       3.042927689930e+04 
       1.576925126822e-02       3.041517950353e+04 
       1.589041303605e-02       3.039923768712e+04 
       1.601161905840e-02       3.038150300802e+04 
       1.613286994269e-02       3.036197777837e+04 
       1.625416631747e-02       3.034067494445e+04 
       1.637550883265e-02       3.031767026786e+04 
       1.649689815971e-02       3.029296806477e+04 
       1.661833499193e-02       3.026654859635e+04 
       1.673982004464e-02       3.023851568389e+04 
       1.686135405547e-02       3.020885919750e+04 
       1.698293778468e-02       3.017760053229e+04 
       1.710457201538e-02       3.014474032976e+04 
       1.722625755392e-02       3.011036179624e+04 
       1.734799523017e-02       3.007447224570e+04 
       1.746978589788e-02       3.003704324047e+04 
       1.759163043507e-02       2.999815551950e+04 
       1.771352974434e-02       2.995784556959e+04 
       1.783548475336e-02       2.991607861043e+04 
       1.795749641520e-02       2.987293333451e+04 
       1.807956570881e-02       2.982836792620e+04 
       1.820169363944e-02       2.978251562495e+04 
       1.832388123913e-02       2.973531109078e+04 
       1.844612956717e-02       2.968678078437e+04 
       1.856843971062e-02       2.963698184658e+04 
       1.869081278480e-02       2.958590960767e+04 
       1.881324993388e-02       2.953363725970e+04 
       1.893575233137e-02       2.948010051688e+04 
       1.905832118077e-02       2.942540101310e+04 
       1.918095771610e-02       2.936950366286e+04 
       1.930366320257e-02       2.931245567804e+04 
       1.942643893719e-02       2.925427773515e+04 
       1.954928624942e-02       2.919502110772e+04 
       1.967220650188e-02       2.913469750302e+04 
       1.979520109106e-02       2.907329486732e+04 
       1.991827144799e-02       2.901082546786e+04 
       2.004141903905e-02       2.894730532656e+04 
       2.016464536672e-02       2.888281784585e+04 
       2.028795197040e-02       2.881739107576e+04 
       2.041134042717e-02       2.875094669498e+04 
       2.053481235274e-02       2.868354706237e+04 
       2.065836940225e-02       2.861532683758e+04 
       2.078201327121e-02       2.854611194889e+04 
       2.090574569643e-02       2.847602568997e+04 
       2.102956845697e-02       2.840506213455e+04 
       2.115348337517e-02       2.833330771902e+04 
       2.127749231763e-02       2.826070006981e+04 
       2.140159719631e-02       2.818724465585e+04 
       2.152579996960e-02       2.811306741645e+04 
       2.165010264344e-02       2.803808128722e+04 
       2.177450727252e-02       2.796230791596e+04 
       2.189901596143e-02       2.788583141599e+04 
       2.202363086594e-02       2.780869378393e+04 
       2.214835419423e-02       2.773082920438e+04 
       2.227318820827e-02       2.765224825646e+04 
       2.239813522512e-02       2.757302929187e+04 
       2.252319761837e-02       2.749315766895e+04 
       2.264837781959e-02       2.741263920523e+04 
       2.277367831981e-02       2.733150926820e+04 
       2.289910167104e-02       2.724980069103e+04 
       2.302465048794e-02       2.716744728751e+04 
       2.315032744940e-02       2.708458947777e+04 
       2.327613530027e-02       2.700113847623e+04 
       2.340207685310e-02       2.691719801609e+04 
       2.352815498999e-02       2.683268476407e+04 
       2.365437266444e-02       2.674767533183e+04 
       2.378073290327e-02       2.666222794972e+04 
       2.390723880868e-02       2.657632377993e+04 
       2.403389356030e-02       2.648986760057e+04 
       2.416070041731e-02       2.640302885772e+04 
       2.428766272068e-02       2.631573404399e+04 
       2.441478389547e-02       2.622802358244e+04 
       2.454206745319e-02       2.613989947241e+04 
       2.466951699428e-02       2.605136574546e+04 
       2.479713621060e-02       2.596247386810e+04 
       2.492492888814e-02       2.587324206358e+04 
       2.505289890969e-02       2.578372658820e+04 
       2.518105025768e-02       2.569375936491e+04 
       2.530938701710e-02       2.560352819585e+04 
       2.543791337856e-02       2.551301417981e+04 
       2.556663364141e-02       2.542208480769e+04 
       2.569555221699e-02       2.533096406458e+04 
       2.582467363205e-02       2.523958755231e+04 
       2.595400253221e-02       2.514786572371e+04 
       2.608354368563e-02       2.505591379626e+04 
       2.621330198675e-02       2.496378358891e+04 
       2.634328246028e-02       2.487137258486e+04 
       2.647349026518e-02       2.477868632275e+04 
       2.660393069895e-02       2.468598007332e+04 
       2.673460920202e-02       2.459281014918e+04 
       2.686553136228e-02       2.449970826499e+04 
       2.699670291985e-02       2.440625646046e+04 
       2.712812977202e-02       2.431272418242e+04 
       2.725981797837e-02       2.421908949719e+04 
       2.739177376612e-02       2.412520147930e+04 
       2.752400353570e-02       2.403125900737e+04 
       2.765651386651e-02       2.393713464769e+04 
       2.778931152300e-02       2.384289329470e+04 
       2.792240346089e-02       2.374856945794e+04 
       2.805579683378e-02       2.365408529539e+04 
       2.818949899994e-02       2.355961462675e+04 
       2.832351752945e-02       2.346500596918e+04 
       2.845786021161e-02       2.337035183460e+04 
       2.859253506273e-02       2.327563245847e+04 
       2.872755033417e-02       2.318086945190e+04 
       2.886291452088e-02       2.308599464980e+04 
       2.899863637014e-02       2.299111437807e+04 
       2.913472489089e-02       2.289625144779e+04 
       2.927118936333e-02       2.280121153934e+04 
       2.940803934903e-02       2.270630187995e+04 
       2.954528470154e-02       2.261133909236e+04 
       2.968293557743e-02       2.251637569069e+04 
       2.982100244793e-02       2.242135858476e+04 
       2.995949611101e-02       2.232638624408e+04 
       3.009842770421e-02       2.223143876797e+04 
       3.023780871794e-02       2.213650953305e+04 
       3.037765100954e-02       2.204159193896e+04 
       3.051796681799e-02       2.194665601877e+04 
       3.065876877937e-02       2.185182049766e+04 
       3.080006994310e-02       2.175706095105e+04 
       3.094188378905e-02       2.166226960293e+04 
       3.108422424547e-02       2.156756930240e+04 
       3.122710570793e-02       2.147286419287e+04 
       3.137054305923e-02       2.137821538215e+04 
       3.151455169034e-02       2.128370201154e+04 
       3.165914752254e-02       2.118920804556e+04 
       3.180434703074e-02       2.109490778355e+04 
       3.195016726805e-02       2.100053021247e+04 
       3.209662589179e-02       2.090627134085e+04 
       3.224374119094e-02       2.081205824929e+04 
       3.239153211511e-02       2.071801538700e+04 
       3.254001830528e-02       2.062402297425e+04 
       3.268922012625e-02       2.053007600435e+04 
       3.283915870103e-02       2.043632861521e+04 
       3.298985594732e-02       2.034257368401e+04 
       3.314133461615e-02       2.024894978394e+04 
       3.329361833293e-02       2.015545133849e+04 
       3.344673164098e-02       2.006194287162e+04 
       3.360070004782e-02       1.996866419949e+04 
       3.375555007448e-02       1.987545201649e+04 
       3.391130930780e-02       1.978232195762e+04 
       3.406800645630e-02       1.968927291362e+04 
       3.422567140963e-02       1.959635776879e+04 
       3.438433530206e-02       1.950359740758e+04 
       3.454403058019e-02       1.941083678198e+04 
       3.470479107534e-02       1.931824672395e+04 
       3.486665208099e-02       1.922573813528e+04 
       3.502965043560e-02       1.913333758160e+04 
       3.519382461140e-02       1.904100943360e+04 
       3.535921480959e-02       1.894880286837e+04 
       3.552586306248e-02       1.885673083602e+04 
       3.569381334328e-02       1.876468113116e+04 
       3.586311168417e-02       1.867278859368e+04 
       3.603380630334e-02       1.858098551857e+04 
       3.620594774203e-02       1.848922924026e+04 
       3.637958901224e-02       1.839759328851e+04 
       3.655478575637e-02       1.830597810670e+04 
       3.673159641979e-02       1.821448596580e+04 
       3.691008243766e-02       1.812307045110e+04 
       3.709030843750e-02       1.803171594812e+04 
       3.727234245887e-02       1.794042857087e+04 
       3.745625619228e-02       1.784918625061e+04 
       3.764212523899e-02       1.775805825428e+04 
       3.783002939418e-02       1.766683475543e+04 
       3.802005295586e-02       1.757579446538e+04 
       3.821228506245e-02       1.748472827461e+04 
       3.840682006222e-02       1.739370505333e+04 
       3.860375791815e-02       1.730264858292e+04 
       3.880320465244e-02       1.721167351771e+04 
       3.900527283528e-02       1.712062161381e+04 
       3.921008212322e-02       1.702957465709e+04 
       3.941775985321e-02       1.693853799890e+04 
       3.962844169930e-02       1.684744543318e+04 
       3.984227239995e-02       1.675632998337e+04 
       4.005940656518e-02       1.666510503337e+04 
       4.028000957404e-02       1.657385062998e+04 
       4.050425857469e-02       1.648251132361e+04 
       4.073234360131e-02       1.639103527884e+04 
       4.096446882413e-02       1.629946588704e+04 
       4.120085395197e-02       1.620769758146e+04 
       4.144173580954e-02       1.611583449445e+04 
       4.168737011594e-02       1.602380235290e+04 
       4.193803349526e-02       1.593150830366e+04 
       4.219402575572e-02       1.583896388956e+04 
       4.245567248083e-02       1.574625794827e+04 
       4.272332798377e-02       1.565319618054e+04 
       4.299737868649e-02       1.555988206706e+04 
       4.327824699706e-02       1.546620116415e+04 
       4.356639577347e-02       1.537212489520e+04 
       4.386233348067e-02       1.527754249940e+04 
       4.416662017006e-02       1.518265553949e+04 
       4.447987443880e-02       1.508719490641e+04 
       4.480278156119e-02       1.499112990539e+04 
       4.513610302824e-02       1.489446444788e+04 
       4.548068778661e-02       1.479711659926e+04 
       4.583748553730e-02       1.469899456577e+04 
       4.620756254245e-02       1.460006093709e+04 
       4.659212050012e-02       1.450020357542e+04 
       4.699251918882e-02       1.439927507463e+04 
       4.741030376452e-02       1.429715406981e+04 
       4.784723782351e-02       1.419378322452e+04 
       4.830534363767e-02       1.408894468528e+04 
       4.878695133964e-02       1.398246632836e+04 
       4.929475929923e-02       1.387410523877e+04 
       4.983190850165e-02       1.376362961575e+04 
       5.040207441277e-02       1.365065451826e+04 
       5.100958056557e-02       1.353479640220e+04 
       5.165953882535e-02       1.341558618436e+04 
       5.235802174155e-02       1.329231161679e+04 
       5.311227203146e-02       1.316422340875e+04 
       5.393095195774e-02       1.303020527302e+04 
       5.482442900316e-02       1.288884983723e+04 
