# Matter power spectrum P(k) at redshift z=0
# for k=7.62168e-06 to 0.45936 h/Mpc,
# number of wavenumbers equal to 574
#    1:k (h/Mpc)              2:P (Mpc/h)^3        
       7.621676351016e-06       1.265565795056e+02 
       1.702477687130e-05       2.747358848997e+02 
       2.644551128183e-05       4.201250258621e+02 
       3.589737236299e-05       5.640963412789e+02 
       4.539397230545e-05       7.073555082817e+02 
       5.494910750293e-05       8.503836549066e+02 
       6.457682447224e-05       9.935591022914e+02 
       7.429148738486e-05       1.137205988790e+03 
       8.410784769783e-05       1.281617551082e+03 
       9.404111637697e-05       1.427069177249e+03 
       1.041070392108e-04       1.573826404615e+03 
       1.143219757200e-04       1.722150332700e+03 
       1.247029821705e-04       1.872301425516e+03 
       1.352678992000e-04       2.024542610338e+03 
       1.460354445654e-04       2.179141610695e+03 
       1.570253115030e-04       2.336373153172e+03 
       1.682582731772e-04       2.496520754006e+03 
       1.797562936505e-04       2.659878503696e+03 
       1.915426457543e-04       2.826752728080e+03 
       2.036420361543e-04       2.997463529367e+03 
       2.160807377876e-04       3.172346363997e+03 
       2.288867296880e-04       3.351753519761e+03 
       2.420898439990e-04       3.536055635564e+03 
       2.557219196915e-04       3.725643103720e+03 
       2.698169621369e-04       3.920927451203e+03 
       2.844113072183e-04       4.122342641780e+03 
       2.995437880768e-04       4.330346241669e+03 
       3.152559018631e-04       4.545420419378e+03 
       3.315919729808e-04       4.768072720585e+03 
       3.485993082469e-04       4.998836549855e+03 
       3.663283381443e-04       5.238271262413e+03 
       3.848327369068e-04       5.486961747659e+03 
       4.041695125608e-04       5.745517405771e+03 
       4.243990562991e-04       6.014570373046e+03 
       4.455851387476e-04       6.294772810645e+03 
       4.677948389151e-04       6.586793125763e+03 
       4.910983900671e-04       6.891310900602e+03 
       5.155689256633e-04       7.209010402648e+03 
       5.412821081342e-04       7.540572449125e+03 
       5.683156240164e-04       7.886664543312e+03 
       5.967485311983e-04       8.247929215940e+03 
       6.266604481411e-04       8.624970447903e+03 
       6.581305812600e-04       9.018338434183e+03 
       6.912365953318e-04       9.428512872437e+03 
       7.260533427365e-04       9.855885270053e+03 
       7.626514800745e-04       1.030074075487e+04 
       8.010960143138e-04       1.076324032455e+04 
       8.414448337414e-04       1.124340464242e+04 
       8.837472899186e-04       1.174110009339e+04 
       9.280429036702e-04       1.225602876117e+04 
       9.743602692085e-04       1.278772226467e+04 
       1.022716224627e-03       1.333548475221e+04 
       1.073115343959e-03       1.389854926972e+04 
       1.125549786647e-03       1.447596652833e+04 
       1.179999516505e-03       1.506663393596e+04 
       1.236432876912e-03       1.566932687343e+04 
       1.294807485033e-03       1.628272141627e+04 
       1.355071388273e-03       1.690541853032e+04 
       1.417164412853e-03       1.753596992421e+04 
       1.481019628535e-03       1.817290349309e+04 
       1.546564854698e-03       1.881474801410e+04 
       1.613724140300e-03       1.946005528729e+04 
       1.682419161761e-03       2.010741945989e+04 
       1.752570496707e-03       2.075549597450e+04 
       1.824098745795e-03       2.140300525131e+04 
       1.896925488197e-03       2.204875307838e+04 
       1.970974067647e-03       2.269162737154e+04 
       2.046170214878e-03       2.333060814623e+04 
       2.122442518574e-03       2.396476259128e+04 
       2.199722760986e-03       2.459325112818e+04 
       2.277946136301e-03       2.521531774293e+04 
       2.357051370348e-03       2.583029417961e+04 
       2.436980759481e-03       2.643758432703e+04 
       2.517680145142e-03       2.703667208197e+04 
       2.599098838727e-03       2.762710687516e+04 
       2.681189509411e-03       2.820850255806e+04 
       2.763908045605e-03       2.878053240764e+04 
       2.847213398798e-03       2.934291938583e+04 
       2.931067416888e-03       2.989544544146e+04 
       3.015434672558e-03       3.043792517505e+04 
       3.100282291015e-03       3.097021827064e+04 
       3.185579780335e-03       3.149222428302e+04 
       3.271298866754e-03       3.200386986177e+04 
       3.357413336584e-03       3.250511713194e+04 
       3.443898885824e-03       3.299594448240e+04 
       3.530732978137e-03       3.347635644253e+04 
       3.617894711498e-03       3.394638434479e+04 
       3.705364693578e-03       3.440606374991e+04 
       3.793124925758e-03       3.485545707491e+04 
       3.881158695492e-03       3.529463164237e+04 
       3.969450476694e-03       3.572365975709e+04 
       4.057985837730e-03       3.614264681852e+04 
       4.146751356587e-03       3.655167482521e+04 
       4.235734542750e-03       3.695085082500e+04 
       4.324923765342e-03       3.734029909230e+04 
       4.414308187066e-03       3.772012567412e+04 
       4.503877703521e-03       3.809044273597e+04 
       4.593622887480e-03       3.845138569919e+04 
       4.683534937719e-03       3.880308028972e+04 
       4.773605632048e-03       3.914564003861e+04 
       4.863827284193e-03       3.947921873134e+04 
       4.954192704197e-03       3.980393916183e+04 
       5.044695162061e-03       4.011991261750e+04 
       5.135328354338e-03       4.042730771441e+04 
       5.226086373443e-03       4.072623291331e+04 
       5.316963679426e-03       4.101680565575e+04 
       5.407955074025e-03       4.129918496293e+04 
       5.499055676781e-03       4.157349604066e+04 
       5.590260903052e-03       4.183985077989e+04 
       5.681566443759e-03       4.209839015732e+04 
       5.772968246723e-03       4.234923254356e+04 
       5.864462499447e-03       4.259249627600e+04 
       5.956045613235e-03       4.282829129447e+04 
       6.047714208528e-03       4.305677382984e+04 
       6.139465101349e-03       4.327805679681e+04 
       6.231295290784e-03       4.349225590805e+04 
       6.323201947394e-03       4.369944632447e+04 
       6.415182402488e-03       4.389980041154e+04 
       6.507234138196e-03       4.409339706085e+04 
       6.599354778262e-03       4.428035754006e+04 
       6.691542079508e-03       4.446077433246e+04 
       6.783793923916e-03       4.463480494636e+04 
       6.876108311277e-03       4.480251721481e+04 
       6.968483352358e-03       4.496401909052e+04 
       7.060917262554e-03       4.511940257607e+04 
       7.153408355985e-03       4.526878010206e+04 
       7.245955040000e-03       4.541223401723e+04 
       7.338555810063e-03       4.554986824926e+04 
       7.431209244987e-03       4.568178841485e+04 
       7.523914002495e-03       4.580807779936e+04 
       7.616668815074e-03       4.592883475619e+04 
       7.709472486115e-03       4.604414698408e+04 
       7.802323886307e-03       4.615407303389e+04 
       7.895221950271e-03       4.625875171145e+04 
       7.988165673410e-03       4.635823187220e+04 
       8.081154108976e-03       4.645262030051e+04 
       8.174186365317e-03       4.654197010106e+04 
       8.267261603312e-03       4.662639704825e+04 
       8.360379033964e-03       4.670596580635e+04 
       8.453537916152e-03       4.678074220494e+04 
       8.546737554527e-03       4.685081899783e+04 
       8.639977297539e-03       4.691626835117e+04 
       8.733256535595e-03       4.697714762884e+04 
       8.826574699326e-03       4.703354433363e+04 
       8.919931257974e-03       4.708553227902e+04 
       9.013325717872e-03       4.713316420028e+04 
       9.106757621027e-03       4.717653059161e+04 
       9.200226543788e-03       4.721568948156e+04 
       9.293732095600e-03       4.725070995108e+04 
       9.387273917841e-03       4.728165532179e+04 
       9.480851682727e-03       4.730859799768e+04 
       9.574465092290e-03       4.733161867454e+04 
       9.668113877425e-03       4.735075108235e+04 
       9.761797796991e-03       4.736609935168e+04 
       9.855516636979e-03       4.737766776327e+04 
       9.949270209728e-03       4.738556885055e+04 
       1.004305835320e-02       4.738980800776e+04 
       1.013688093030e-02       4.739049101959e+04 
       1.023073782823e-02       4.738764772727e+04 
       1.032462895792e-02       4.738133084818e+04 
       1.041855425348e-02       4.737161498556e+04 
       1.051251367166e-02       4.735854317710e+04 
       1.060650719142e-02       4.734218116942e+04 
       1.070053481347e-02       4.732256743382e+04 
       1.079459655988e-02       4.729976369335e+04 
       1.088869247371e-02       4.727383822660e+04 
       1.098282261866e-02       4.724481988379e+04 
       1.107698707878e-02       4.721276088825e+04 
       1.117118595819e-02       4.717773904187e+04 
       1.126541938081e-02       4.713977215589e+04 
       1.135968749014e-02       4.709892319490e+04 
       1.145399044905e-02       4.705524063536e+04 
       1.154832843964e-02       4.700876509435e+04 
       1.164270166304e-02       4.695955470526e+04 
       1.173711033928e-02       4.690763882142e+04 
       1.183155470721e-02       4.685308510543e+04 
       1.192603502438e-02       4.679593372134e+04 
       1.202055156696e-02       4.673621993984e+04 
       1.211510462975e-02       4.667398566571e+04 
       1.220969452605e-02       4.660929621929e+04 
       1.230432158773e-02       4.654216942377e+04 
       1.239898616520e-02       4.647266841514e+04 
       1.249368862740e-02       4.640083538470e+04 
       1.258842936191e-02       4.632667388880e+04 
       1.268320877493e-02       4.625027396990e+04 
       1.277802729140e-02       4.617166283063e+04 
       1.287288535506e-02       4.609089105130e+04 
       1.296778342857e-02       4.600796512967e+04 
       1.306272199361e-02       4.592293398327e+04 
       1.315770155104e-02       4.583584357264e+04 
       1.325272262101e-02       4.574677317596e+04 
       1.334778574317e-02       4.565572275613e+04 
       1.344289147682e-02       4.556271340583e+04 
       1.353804040109e-02       4.546783097767e+04 
       1.363323311521e-02       4.537102126276e+04 
       1.372847023864e-02       4.527241820556e+04 
       1.382375241142e-02       4.517204465621e+04 
       1.391908029433e-02       4.506989861573e+04 
       1.401445456921e-02       4.496603193822e+04 
       1.410987593921e-02       4.486045941125e+04 
       1.420534512913e-02       4.475322122404e+04 
       1.430086288571e-02       4.464450001262e+04 
       1.439642997796e-02       4.453402690471e+04 
       1.449204719748e-02       4.442211236970e+04 
       1.458771535889e-02       4.430865017324e+04 
       1.468343530014e-02       4.419372609270e+04 
       1.477920788294e-02       4.407732559008e+04 
       1.487503399313e-02       4.395950483108e+04 
       1.497091454115e-02       4.384034759910e+04 
       1.506685046247e-02       4.371978360696e+04 
       1.516284271802e-02       4.359796772499e+04 
       1.525889229471e-02       4.347479598505e+04 
       1.535500020590e-02       4.335036031749e+04 
       1.545116749190e-02       4.322468311153e+04 
       1.554739522053e-02       4.309786798265e+04 
       1.564368448767e-02       4.296989677031e+04 
       1.574003641781e-02       4.284079647001e+04 
       1.583645216463e-02       4.271047318623e+04 
       1.593293291165e-02       4.257914375741e+04 
       1.602947987283e-02       4.244676333238e+04 
       1.612609429324e-02       4.231330685356e+04 
       1.622277744972e-02       4.217897503909e+04 
       1.631953065158e-02       4.204357138485e+04 
       1.641635524132e-02       4.190725969459e+04 
       1.651325259540e-02       4.177007080319e+04 
       1.661022412496e-02       4.163194352383e+04 
       1.670727127666e-02       4.149286360717e+04 
       1.680439553348e-02       4.135310332916e+04 
       1.690159841555e-02       4.121252751358e+04 
       1.699888148108e-02       4.107082768336e+04 
       1.709624632720e-02       4.092888986171e+04 
       1.719369459094e-02       4.078602218811e+04 
       1.729122795016e-02       4.064234973647e+04 
       1.738884812458e-02       4.049804370179e+04 
       1.748655687679e-02       4.035307992449e+04 
       1.758435601330e-02       4.020752169232e+04 
       1.768224738568e-02       4.006126125560e+04 
       1.778023289163e-02       3.991447618828e+04 
       1.787831447621e-02       3.976710351092e+04 
       1.797649413303e-02       3.961916160853e+04 
       1.807477390548e-02       3.947071238632e+04 
       1.817315588806e-02       3.932172725473e+04 
       1.827164222767e-02       3.917228622927e+04 
       1.837023512504e-02       3.902243053564e+04 
       1.846893683611e-02       3.887198226498e+04 
       1.856774967353e-02       3.872130411010e+04 
       1.866667600819e-02       3.857013372821e+04 
       1.876571827079e-02       3.841855207637e+04 
       1.886487895345e-02       3.826665774956e+04 
       1.896416061143e-02       3.811446235338e+04 
       1.906356586487e-02       3.796190451657e+04 
       1.916309740057e-02       3.780904163735e+04 
       1.926275797390e-02       3.765588528037e+04 
       1.936255041070e-02       3.750249735143e+04 
       1.946247760932e-02       3.734885071492e+04 
       1.956254254264e-02       3.719494809094e+04 
       1.966274826031e-02       3.704089920111e+04 
       1.976309789088e-02       3.688664869029e+04 
       1.986359464417e-02       3.673207751643e+04 
       1.996424181366e-02       3.657749203597e+04 
       2.006504277895e-02       3.642287929575e+04 
       2.016600100834e-02       3.626795522778e+04 
       2.026712006151e-02       3.611291482305e+04 
       2.036840359228e-02       3.595792012824e+04 
       2.046985535147e-02       3.580273870815e+04 
       2.057147918992e-02       3.564748645427e+04 
       2.067327906157e-02       3.549223182214e+04 
       2.077525902666e-02       3.533697941246e+04 
       2.087742325508e-02       3.518159856759e+04 
       2.097977602988e-02       3.502628254790e+04 
       2.108232175083e-02       3.487093557658e+04 
       2.118506493818e-02       3.471564008267e+04 
       2.128801023662e-02       3.456020154991e+04 
       2.139116241927e-02       3.440520519941e+04 
       2.149452639196e-02       3.424996470751e+04 
       2.159810719758e-02       3.409491931248e+04 
       2.170191002073e-02       3.393980588859e+04 
       2.180594019244e-02       3.378490628997e+04 
       2.191020319517e-02       3.363007099311e+04 
       2.201470466798e-02       3.347541703805e+04 
       2.211945041196e-02       3.332080167875e+04 
       2.222444639584e-02       3.316650421073e+04 
       2.232969876193e-02       3.301219177006e+04 
       2.243521383219e-02       3.285802174568e+04 
       2.254099811472e-02       3.270420380344e+04 
       2.264705831041e-02       3.255043526126e+04 
       2.275340131996e-02       3.239683011474e+04 
       2.286003425124e-02       3.224347594600e+04 
       2.296696442687e-02       3.209026130351e+04 
       2.307419939234e-02       3.193731708425e+04 
       2.318174692428e-02       3.178471360384e+04 
       2.328961503935e-02       3.163216379418e+04 
       2.339781200337e-02       3.147985985396e+04 
       2.350634634099e-02       3.132799608147e+04 
       2.361522684581e-02       3.117614550548e+04 
       2.372446259099e-02       3.102478273169e+04 
       2.383406294033e-02       3.087342893307e+04 
       2.394403756003e-02       3.072267146205e+04 
       2.405439643094e-02       3.057196823656e+04 
       2.416514986142e-02       3.042166090426e+04 
       2.427630850099e-02       3.027150294385e+04 
       2.438788335452e-02       3.012171264174e+04 
       2.449988579730e-02       2.997230560066e+04 
       2.461232759087e-02       2.982318557820e+04 
       2.472522089965e-02       2.967445722986e+04 
       2.483857830854e-02       2.952595606012e+04 
       2.495241284143e-02       2.937768887183e+04 
       2.506673798080e-02       2.922984312873e+04 
       2.518156768837e-02       2.908239057385e+04 
       2.529691642689e-02       2.893515686337e+04 
       2.541279918328e-02       2.878833669846e+04 
       2.552923149300e-02       2.864182215177e+04 
       2.564622946591e-02       2.849572469489e+04 
       2.576380981368e-02       2.834984337968e+04 
       2.588198987875e-02       2.820436323260e+04 
       2.600078766518e-02       2.805930880820e+04 
       2.612022187125e-02       2.791455020330e+04 
       2.624031192423e-02       2.777007681388e+04 
       2.636107801723e-02       2.762597397847e+04 
       2.648254114844e-02       2.748236434526e+04 
       2.660472316287e-02       2.733898179307e+04 
       2.672764679689e-02       2.719603720184e+04 
       2.685133572563e-02       2.705336704918e+04 
       2.697581461358e-02       2.691110588876e+04 
       2.710110916865e-02       2.676919681207e+04 
       2.722724619995e-02       2.662760555097e+04 
       2.735425367953e-02       2.648644871378e+04 
       2.748216080855e-02       2.634554863274e+04 
       2.761099808818e-02       2.620490844973e+04 
       2.774079739561e-02       2.606476871018e+04 
       2.787159206569e-02       2.592490439878e+04 
       2.800341697865e-02       2.578540806183e+04 
       2.813630865449e-02       2.564627555834e+04 
       2.827030535459e-02       2.550741892494e+04 
       2.840544719126e-02       2.536889636915e+04 
       2.854177624600e-02       2.523075702315e+04 
       2.867933669723e-02       2.509279272615e+04 
       2.881817495844e-02       2.495526794225e+04 
       2.895833982787e-02       2.481801862664e+04 
       2.909988265070e-02       2.468102238696e+04 
       2.924285749522e-02       2.454433476673e+04 
       2.938732134429e-02       2.440794644783e+04 
       2.953333430374e-02       2.427186215403e+04 
       2.968095982958e-02       2.413605265594e+04 
       2.983026497589e-02       2.400046839986e+04 
       2.998132066596e-02       2.386513414197e+04 
       3.013420198898e-02       2.373007455107e+04 
       3.028898852552e-02       2.359521796228e+04 
       3.044576470482e-02       2.346062640160e+04 
       3.060462019801e-02       2.332615273292e+04 
       3.076565035137e-02       2.319192429553e+04 
       3.092895666463e-02       2.305788787566e+04 
       3.109464732001e-02       2.292404151400e+04 
       3.126283776844e-02       2.279030236157e+04 
       3.143365138050e-02       2.265666507695e+04 
       3.160722017061e-02       2.252328301797e+04 
       3.178368560451e-02       2.238991923886e+04 
       3.196319950157e-02       2.225663144619e+04 
       3.214592504538e-02       2.212339039336e+04 
       3.233203791828e-02       2.199023427092e+04 
       3.252172757822e-02       2.185707863295e+04 
       3.271519869949e-02       2.172398138118e+04 
       3.291267280263e-02       2.159074175973e+04 
       3.311439010357e-02       2.145744377095e+04 
       3.332061161750e-02       2.132419577131e+04 
       3.353162155973e-02       2.119059741247e+04 
       3.374773009405e-02       2.105700213641e+04 
       3.396927648918e-02       2.092315064025e+04 
       3.419663275606e-02       2.078912896225e+04 
       3.443020785420e-02       2.065474782704e+04 
       3.467045257373e-02       2.052008434432e+04 
       3.491786522348e-02       2.038501560007e+04 
       3.517299828438e-02       2.024942932562e+04 
       3.543646622397e-02       2.011340106900e+04 
       3.570895471381e-02       1.997674015486e+04 
       3.599123154943e-02       1.983942366636e+04 
       3.628415964603e-02       1.970130484240e+04 
       3.658871257636e-02       1.956233130628e+04 
       3.690599323617e-02       1.942236216039e+04 
       3.723725637395e-02       1.928125206679e+04 
       3.758393591494e-02       1.913876928754e+04 
