# Matter power spectrum P(k) at redshift z=0
# for k=8.62553e-06 to 0.519244 h/Mpc,
# number of wavenumbers equal to 568
#    1:k (h/Mpc)              2:P (Mpc/h)^3        
       8.625533536372e-06       9.182717760183e+01 
       1.926879768756e-05       1.927125955164e+02 
       2.993761889630e-05       2.943561491346e+02 
       4.065158081786e-05       3.928970760678e+02 
       5.143048879611e-05       4.927810566218e+02 
       6.229449057700e-05       5.929429918242e+02 
       7.326419969407e-05       6.935977232812e+02 
       8.436082267431e-05       7.947787252195e+02 
       9.560629122199e-05       8.967388197889e+02 
       1.070234005504e-04       9.996458532594e+02 
       1.186359550445e-04       1.103921239642e+03 
       1.304689224453e-04       1.209686727013e+03 
       1.425485977477e-04       1.317378264074e+03 
       1.549027779855e-04       1.427096951629e+03 
       1.675609490363e-04       1.539028232106e+03 
       1.805544854974e-04       1.653670576954e+03 
       1.939168645546e-04       1.771141406587e+03 
       2.076838945579e-04       1.891847524408e+03 
       2.218939587202e-04       2.015996171997e+03 
       2.365882739217e-04       2.143951138035e+03 
       2.518111640149e-04       2.276132323483e+03 
       2.676103462165e-04       2.412821125157e+03 
       2.840372281094e-04       2.554545102582e+03 
       3.011472113904e-04       2.701624661773e+03 
       3.189999967219e-04       2.854586279711e+03 
       3.376598818236e-04       3.013887711621e+03 
       3.571960421986e-04       3.180090080251e+03 
       3.776827806083e-04       3.353734686019e+03 
       3.991997275691e-04       3.535408165320e+03 
       4.218319708242e-04       3.725723468913e+03 
       4.456700870843e-04       3.925337844602e+03 
       4.708100446464e-04       4.134935713125e+03 
       4.973529412440e-04       4.355206207792e+03 
       5.254045383818e-04       4.586871763025e+03 
       5.550745523650e-04       4.830655554533e+03 
       5.864756644453e-04       5.087273884083e+03 
       6.197222192326e-04       5.357432947548e+03 
       6.549285930334e-04       5.641798466053e+03 
       6.922072329669e-04       5.941000654424e+03 
       7.316663937519e-04       6.255584414239e+03 
       7.734076309397e-04       6.586007488137e+03 
       8.175231445363e-04       6.932609506388e+03 
       8.640931011823e-04       7.295588691182e+03 
       9.131830907541e-04       7.675019395968e+03 
       9.648418882946e-04       8.070785435724e+03 
       1.019099689306e-03       8.482580437084e+03 
       1.075966962732e-03       8.909942208044e+03 
       1.135434022189e-03       9.352188429054e+03 
       1.197471357030e-03       9.808595419064e+03 
       1.262030699059e-03       1.027813762128e+04 
       1.329046738082e-03       1.075980883067e+04 
       1.398439349442e-03       1.125240321372e+04 
       1.470116165796e-03       1.175470730560e+04 
       1.543975316122e-03       1.226539929122e+04 
       1.619908165723e-03       1.278320831425e+04 
       1.697801916955e-03       1.330684138550e+04 
       1.777541965334e-03       1.383507880670e+04 
       1.859013943173e-03       1.436665120895e+04 
       1.942105417936e-03       1.490041267462e+04 
       2.026707241714e-03       1.543528719943e+04 
       2.112714570118e-03       1.597024315901e+04 
       2.200027583296e-03       1.650438827953e+04 
       2.288551949685e-03       1.703682312886e+04 
       2.378199075744e-03       1.756678055402e+04 
       2.468886183868e-03       1.809354666355e+04 
       2.560536257173e-03       1.861649844309e+04 
       2.653077885099e-03       1.913505730444e+04 
       2.746445038496e-03       1.964873698621e+04 
       2.840576797664e-03       2.015706913612e+04 
       2.935417052023e-03       2.065971312330e+04 
       3.030914185882e-03       2.115625528078e+04 
       3.127020761179e-03       2.164643212972e+04 
       3.223693205152e-03       2.212997648320e+04 
       3.320891508512e-03       2.260668005469e+04 
       3.418578937831e-03       2.307635224179e+04 
       3.516721764468e-03       2.353879098585e+04 
       3.615289011212e-03       2.399395361666e+04 
       3.714252217109e-03       2.444166570025e+04 
       3.813585220303e-03       2.488190485168e+04 
       3.913263958373e-03       2.531446981829e+04 
       4.013266285370e-03       2.573955901882e+04 
       4.113571804595e-03       2.615687959061e+04 
       4.214161716080e-03       2.656655927504e+04 
       4.315018677702e-03       2.696863221476e+04 
       4.416126678855e-03       2.736294922221e+04 
       4.517470925632e-03       2.774971183170e+04 
       4.619037736548e-03       2.812870675304e+04 
       4.720814447845e-03       2.850015774786e+04 
       4.822789327514e-03       2.886409057382e+04 
       4.924951497243e-03       2.922040769821e+04 
       5.027290861517e-03       2.956931247949e+04 
       5.129798043231e-03       2.991090077717e+04 
       5.232464325159e-03       3.024501830538e+04 
       5.335281596750e-03       3.057186122891e+04 
       5.438242305712e-03       3.089142805029e+04 
       5.541339413953e-03       3.120384142963e+04 
       5.644566357433e-03       3.150918437608e+04 
       5.747917009579e-03       3.180757581478e+04 
       5.851385647899e-03       3.209890562481e+04 
       5.954966923514e-03       3.238328531842e+04 
       6.058655833309e-03       3.266100457389e+04 
       6.162447694478e-03       3.293188317582e+04 
       6.266338121225e-03       3.319620352931e+04 
       6.370323003422e-03       3.345379977571e+04 
       6.474398487049e-03       3.370505500048e+04 
       6.578560956252e-03       3.394976554324e+04 
       6.682807016866e-03       3.418812796526e+04 
       6.787133481271e-03       3.442018745672e+04 
       6.891537354475e-03       3.464608007159e+04 
       6.996015821293e-03       3.486579228140e+04 
       7.100566234544e-03       3.507947791587e+04 
       7.205186104171e-03       3.528715591456e+04 
       7.309873087198e-03       3.548897706538e+04 
       7.414624978463e-03       3.568504706302e+04 
       7.519439702054e-03       3.587525229229e+04 
       7.624315303386e-03       3.605972904437e+04 
       7.729249941878e-03       3.623861296176e+04 
       7.834241884166e-03       3.641201944493e+04 
       7.939289497815e-03       3.657991641901e+04 
       8.044391245494e-03       3.674236575117e+04 
       8.149545679562e-03       3.689954547735e+04 
       8.254751437051e-03       3.705142893624e+04 
       8.360007235004e-03       3.719818738539e+04 
       8.465311866135e-03       3.733978317916e+04 
       8.570664194802e-03       3.747628129561e+04 
       8.676063153255e-03       3.760787156491e+04 
       8.781507738142e-03       3.773441827642e+04 
       8.886997007260e-03       3.785621153376e+04 
       8.992530076525e-03       3.797317238030e+04 
       9.098106117143e-03       3.808543134551e+04 
       9.203724352981e-03       3.819297125262e+04 
       9.309384058107e-03       3.829592064194e+04 
       9.415084554497e-03       3.839432418980e+04 
       9.520825209896e-03       3.848826105999e+04 
       9.626605435821e-03       3.857771999867e+04 
       9.732424685691e-03       3.866291580797e+04 
       9.838282453087e-03       3.874376108148e+04 
       9.944178270125e-03       3.882034970496e+04 
       1.005011170594e-02       3.889278117433e+04 
       1.015608236524e-02       3.896104862183e+04 
       1.026208988703e-02       3.902523959903e+04 
       1.036813394333e-02       3.908544942083e+04 
       1.047421423802e-02       3.914165022647e+04 
       1.058033050579e-02       3.919394722658e+04 
       1.068648251111e-02       3.924241072141e+04 
       1.079267004727e-02       3.928706888599e+04 
       1.089889293558e-02       3.932801692920e+04 
       1.100515102446e-02       3.936519827249e+04 
       1.111144418873e-02       3.939879034101e+04 
       1.121777232892e-02       3.942881617175e+04 
       1.132413537056e-02       3.945524632596e+04 
       1.143053326364e-02       3.947823730664e+04 
       1.153696598197e-02       3.949778280410e+04 
       1.164343352273e-02       3.951395444813e+04 
       1.174993590594e-02       3.952676540045e+04 
       1.185647317404e-02       3.953628002961e+04 
       1.196304539148e-02       3.954255609967e+04 
       1.206965264434e-02       3.954564481635e+04 
       1.217629504001e-02       3.954558643755e+04 
       1.228297270686e-02       3.954244269330e+04 
       1.238968579397e-02       3.953622493301e+04 
       1.249643447090e-02       3.952701271036e+04 
       1.260321892742e-02       3.951482646079e+04 
       1.271003937337e-02       3.949972391643e+04 
       1.281689603846e-02       3.948175838863e+04 
       1.292378917212e-02       3.946095539112e+04 
       1.303071904340e-02       3.943740840134e+04 
       1.313768594082e-02       3.941108355352e+04 
       1.324469017237e-02       3.938204040425e+04 
       1.335173206538e-02       3.935037036308e+04 
       1.345881196650e-02       3.931607737287e+04 
       1.356593024173e-02       3.927921015197e+04 
       1.367308727634e-02       3.923980442786e+04 
       1.378028347497e-02       3.919792943257e+04 
       1.388751926159e-02       3.915359364440e+04 
       1.399479507964e-02       3.910669150310e+04 
       1.410211139203e-02       3.905774815682e+04 
       1.420946868126e-02       3.900635598925e+04 
       1.431686744956e-02       3.895257864873e+04 
       1.442430821895e-02       3.889662422513e+04 
       1.453179153142e-02       3.883842875076e+04 
       1.463931794908e-02       3.877807131489e+04 
       1.474688805434e-02       3.871561038659e+04 
       1.485450245008e-02       3.865090383210e+04 
       1.496216175986e-02       3.858440593581e+04 
       1.506986662816e-02       3.851571320322e+04 
       1.517761772058e-02       3.844503002874e+04 
       1.528541572412e-02       3.837239277055e+04 
       1.539326134742e-02       3.829785131143e+04 
       1.550115532108e-02       3.822145594946e+04 
       1.560909839791e-02       3.814315255535e+04 
       1.571709135329e-02       3.806315405360e+04 
       1.582513498545e-02       3.798131754491e+04 
       1.593323011588e-02       3.789769788828e+04 
       1.604137758961e-02       3.781248446472e+04 
       1.614957827566e-02       3.772547407570e+04 
       1.625783306738e-02       3.763686247352e+04 
       1.636614288290e-02       3.754674375983e+04 
       1.647450866554e-02       3.745493213357e+04 
       1.658293138423e-02       3.736165691447e+04 
       1.669141203402e-02       3.726685879366e+04 
       1.679995163652e-02       3.717056172074e+04 
       1.690855124042e-02       3.707285173901e+04 
       1.701721192198e-02       3.697368910643e+04 
       1.712593478559e-02       3.687314890521e+04 
       1.723472096432e-02       3.677127669782e+04 
       1.734357162045e-02       3.666804972895e+04 
       1.745248794612e-02       3.656359748551e+04 
       1.756147116392e-02       3.645784899077e+04 
       1.767052252752e-02       3.635086178693e+04 
       1.777964332230e-02       3.624266609391e+04 
       1.788883486609e-02       3.613335553768e+04 
       1.799809850979e-02       3.602281976234e+04 
       1.810743563816e-02       3.591112665786e+04 
       1.821684767053e-02       3.579852080842e+04 
       1.832633606158e-02       3.568475813512e+04 
       1.843590230211e-02       3.556996309432e+04 
       1.854554791992e-02       3.545417168601e+04 
       1.865527448059e-02       3.533737561338e+04 
       1.876508358839e-02       3.521966283623e+04 
       1.887497688719e-02       3.510101089505e+04 
       1.898495606137e-02       3.498147523850e+04 
       1.909502283678e-02       3.486107442889e+04 
       1.920517898177e-02       3.473981444186e+04 
       1.931542630815e-02       3.461770291420e+04 
       1.942576667233e-02       3.449483200465e+04 
       1.953620197633e-02       3.437115553711e+04 
       1.964673416897e-02       3.424675624460e+04 
       1.975736524699e-02       3.412163846850e+04 
       1.986809725627e-02       3.399579984063e+04 
       1.997893229308e-02       3.386929589418e+04 
       2.008987250535e-02       3.374214418729e+04 
       2.020092009398e-02       3.361434852250e+04 
       2.031207731423e-02       3.348591958151e+04 
       2.042334647710e-02       3.335696351118e+04 
       2.053472995082e-02       3.322742652662e+04 
       2.064623016235e-02       3.309736253609e+04 
       2.075784959890e-02       3.296674732030e+04 
       2.086959080958e-02       3.283564873860e+04 
       2.098145640706e-02       3.270405417204e+04 
       2.109344906926e-02       3.257202961905e+04 
       2.120557154112e-02       3.243956555164e+04 
       2.131782663650e-02       3.230665807131e+04 
       2.143021723999e-02       3.217339015140e+04 
       2.154274630897e-02       3.203972774781e+04 
       2.165541687556e-02       3.190566000173e+04 
       2.176823204876e-02       3.177136799291e+04 
       2.188119501664e-02       3.163668544536e+04 
       2.199430904858e-02       3.150171059799e+04 
       2.210757749759e-02       3.136646871670e+04 
       2.222100380275e-02       3.123094823394e+04 
       2.233459149171e-02       3.109517661260e+04 
       2.244834418329e-02       3.095919191447e+04 
       2.256226559015e-02       3.082299004099e+04 
       2.267635952158e-02       3.068659382608e+04 
       2.279062988643e-02       3.055001320753e+04 
       2.290508069604e-02       3.041327905587e+04 
       2.301971606742e-02       3.027638881658e+04 
       2.313454022643e-02       3.013936541458e+04 
       2.324955751116e-02       3.000224005088e+04 
       2.336477237538e-02       2.986501325615e+04 
       2.348018939215e-02       2.972769140913e+04 
       2.359581325763e-02       2.959031074212e+04 
       2.371164879489e-02       2.945287685339e+04 
       2.382770095803e-02       2.931538724953e+04 
       2.394397483636e-02       2.917787832942e+04 
       2.406047565878e-02       2.904035116722e+04 
       2.417720879835e-02       2.890283003656e+04 
       2.429417977703e-02       2.876531991411e+04 
       2.441139427060e-02       2.862783365540e+04 
       2.452885811382e-02       2.849038840900e+04 
       2.464657730577e-02       2.835298755612e+04 
       2.476455801542e-02       2.821565053839e+04 
       2.488280658748e-02       2.807839523156e+04 
       2.500132954842e-02       2.794121930659e+04 
       2.512013361280e-02       2.780414898248e+04 
       2.523922568988e-02       2.766717533253e+04 
       2.535861289050e-02       2.753032755424e+04 
       2.547830253428e-02       2.739360190232e+04 
       2.559830215710e-02       2.725702103499e+04 
       2.571861951897e-02       2.712058163400e+04 
       2.583926261223e-02       2.698431788045e+04 
       2.596023967010e-02       2.684821475493e+04 
       2.608155917570e-02       2.671227939581e+04 
       2.620322987141e-02       2.657653856241e+04 
       2.632526076872e-02       2.644100561392e+04 
       2.644766115850e-02       2.630567192632e+04 
       2.657044062183e-02       2.617054772855e+04 
       2.669360904129e-02       2.603562498477e+04 
       2.681717661285e-02       2.590094810911e+04 
       2.694115385831e-02       2.576650262583e+04 
       2.706555163836e-02       2.563230053334e+04 
       2.719038116635e-02       2.549834701335e+04 
       2.731565402271e-02       2.536465569000e+04 
       2.744138217009e-02       2.523120081967e+04 
       2.756757796934e-02       2.509805640701e+04 
       2.769425419635e-02       2.496516460605e+04 
       2.782142405963e-02       2.483255746682e+04 
       2.794910121905e-02       2.470023471984e+04 
       2.807729980540e-02       2.456821079253e+04 
       2.820603444116e-02       2.443645028422e+04 
       2.833532026230e-02       2.430503301503e+04 
       2.846517294141e-02       2.417391355762e+04 
       2.859560871205e-02       2.404308859485e+04 
       2.872664439453e-02       2.391257735392e+04 
       2.885829742317e-02       2.378240081549e+04 
       2.899058587517e-02       2.365252077753e+04 
       2.912352850117e-02       2.352297353496e+04 
       2.925714475760e-02       2.339377542943e+04 
       2.939145484108e-02       2.326487271663e+04 
       2.952647972486e-02       2.313633485517e+04 
       2.966224119749e-02       2.300810842759e+04 
       2.979876190401e-02       2.288023461493e+04 
       2.993606538965e-02       2.275269354603e+04 
       3.007417614645e-02       2.262547698527e+04 
       3.021311966279e-02       2.249862976652e+04 
       3.035292247628e-02       2.237209794357e+04 
       3.049361223016e-02       2.224593388639e+04 
       3.063521773349e-02       2.212009108992e+04 
       3.077776902549e-02       2.199458868981e+04 
       3.092129744434e-02       2.186945193799e+04 
       3.106583570081e-02       2.174464861842e+04 
       3.121141795720e-02       2.162017774857e+04 
       3.135807991188e-02       2.149606292608e+04 
       3.150585889021e-02       2.137227841446e+04 
       3.165479394200e-02       2.124884342413e+04 
       3.180492594656e-02       2.112572722909e+04 
       3.195629772562e-02       2.100296964987e+04 
       3.210895416513e-02       2.088050279721e+04 
       3.226294234659e-02       2.075843729349e+04 
       3.241831168903e-02       2.063663121251e+04 
       3.257511410241e-02       2.051517018642e+04 
       3.273340415372e-02       2.039404138893e+04 
       3.289323924712e-02       2.027322805955e+04 
       3.305467981935e-02       2.015271064285e+04 
       3.321778955207e-02       2.003249809501e+04 
       3.338263560301e-02       1.991261100476e+04 
       3.354928885778e-02       1.979299603616e+04 
       3.371782420461e-02       1.967369512571e+04 
       3.388832083462e-02       1.955466949760e+04 
       3.406086257047e-02       1.943591514800e+04 
       3.423553822646e-02       1.931744952172e+04 
       3.441244200403e-02       1.919923174579e+04 
       3.459167392655e-02       1.908125055203e+04 
       3.477334031837e-02       1.896355199591e+04 
       3.495755433334e-02       1.884608467778e+04 
       3.514443653919e-02       1.872881236539e+04 
       3.533411556476e-02       1.861179808192e+04 
       3.552672881836e-02       1.849497846102e+04 
       3.572242328646e-02       1.837834730970e+04 
       3.592135642398e-02       1.826189880764e+04 
       3.612369714840e-02       1.814564170040e+04 
       3.632962695267e-02       1.802951598536e+04 
       3.653934115387e-02       1.791354974719e+04 
       3.675305029763e-02       1.779770402128e+04 
       3.697098174184e-02       1.768196944485e+04 
       3.719338144720e-02       1.756633705128e+04 
       3.742051600713e-02       1.745076752248e+04 
       3.765267495579e-02       1.733525592325e+04 
       3.789017339994e-02       1.721976762551e+04 
       3.813335502952e-02       1.710428418799e+04 
       3.838259557243e-02       1.698878645057e+04 
       3.863830677243e-02       1.687325496736e+04 
       3.890094098536e-02       1.675764034922e+04 
       3.917099650908e-02       1.664194968805e+04 
       3.944902378754e-02       1.652607644156e+04 
       3.973563266084e-02       1.641003154218e+04 
       4.003150087210e-02       1.629379046780e+04 
       4.033738409113e-02       1.617724250139e+04 
       4.065412777705e-02       1.606040429911e+04 
       4.098268128038e-02       1.594315122669e+04 
       4.132411468506e-02       1.582543837775e+04 
       4.167963901743e-02       1.570720017692e+04 
       4.205063061146e-02       1.558834497100e+04 
       4.243866062531e-02       1.546873450645e+04 
       4.284553096685e-02       1.534825618145e+04 
       4.327331821679e-02       1.522675613968e+04 
       4.372442755309e-02       1.510403441135e+04 
       4.420165918765e-02       1.497986510045e+04 
       4.470829042785e-02       1.485393560044e+04 
       4.524817714032e-02       1.472588682720e+04 
