# Matter power spectrum P(k) at redshift z=0
# for k=1.04438e-05 to 0.627493 h/Mpc,
# number of wavenumbers equal to 560
#    1:k (h/Mpc)              2:P (Mpc/h)^3        
       1.044384300234e-05       5.118942315681e+01 
       2.333400532863e-05       1.111502205337e+02 
       3.626952687422e-05       1.700804158215e+02 
       4.928526157056e-05       2.286070017995e+02 
       6.241664033236e-05       2.870879854320e+02 
       7.569998743537e-05       3.457924835220e+02 
       8.917284701998e-05       4.049511087793e+02 
       1.028743240693e-04       4.647767747391e+02 
       1.168454442431e-04       5.254752092986e+02 
       1.311295369833e-04       5.872514061778e+02 
       1.457726463119e-04       6.503141058853e+02 
       1.608239736822e-04       7.148792730809e+02 
       1.763363570637e-04       7.811731286349e+02 
       1.923667900673e-04       8.494348105857e+02 
       2.089769842513e-04       9.199191041767e+02 
       2.262339766637e-04       9.928988538104e+02 
       2.442107829897e-04       1.068667777261e+03 
       2.629870941806e-04       1.147542938430e+03 
       2.826500108484e-04       1.229867449140e+03 
       3.032948047040e-04       1.316013025548e+03 
       3.250256894974e-04       1.406382449005e+03 
       3.479565748943e-04       1.501411785625e+03 
       3.722117651015e-04       1.601572183957e+03 
       3.979265495932e-04       1.707371013651e+03 
       4.252476160068e-04       1.819352046341e+03 
       4.543331957272e-04       1.938094382483e+03 
       4.853528322366e-04       2.064209514972e+03 
       5.184866435694e-04       2.198336217782e+03 
       5.539239373512e-04       2.341132637081e+03 
       5.918610358531e-04       2.493265119589e+03 
       6.324981867273e-04       2.655393411707e+03 
       6.760354806017e-04       2.828152094354e+03 
       7.226677759104e-04       3.012128470604e+03 
       7.725787458790e-04       3.207837627630e+03 
       8.259343054950e-04       3.415695986067e+03 
       8.828758289911e-04       3.635995115216e+03 
       9.435137005491e-04       3.868878252786e+03 
       1.007921815434e-03       4.114321944184e+03 
       1.076133632017e-03       4.372125262281e+03 
       1.148140250405e-03       4.641908179375e+03 
       1.223890771542e-03       4.923119775518e+03 
       1.303294911807e-03       5.215056015013e+03 
       1.386227571510e-03       5.516864582788e+03 
       1.472534840690e-03       5.827612147944e+03 
       1.562040812236e-03       6.146323408438e+03 
       1.654554570623e-03       6.471968473668e+03 
       1.749876815537e-03       6.803511826049e+03 
       1.847805726939e-03       7.139936502630e+03 
       1.948141841890e-03       7.480263352944e+03 
       2.050691862073e-03       7.823565340784e+03 
       2.155271425752e-03       8.168977073560e+03 
       2.261706953239e-03       8.515701124251e+03 
       2.369836714027e-03       8.863009672189e+03 
       2.479511274839e-03       9.210244251557e+03 
       2.590593480002e-03       9.556812759693e+03 
       2.702958097152e-03       9.902189158447e+03 
       2.816491238379e-03       1.024590531514e+04 
       2.931089643768e-03       1.058754718060e+04 
       3.046659893171e-03       1.092675280079e+04 
       3.163117594111e-03       1.126320390193e+04 
       3.280386579194e-03       1.159662479862e+04 
       3.398398135149e-03       1.192677422322e+04 
       3.517090277100e-03       1.225344556154e+04 
       3.636407075551e-03       1.257645864521e+04 
       3.756298039154e-03       1.289566077267e+04 
       3.876717553379e-03       1.321092076689e+04 
       3.997624373280e-03       1.352212898761e+04 
       4.118981167314e-03       1.382919284872e+04 
       4.240754108575e-03       1.413203356954e+04 
       4.362912509447e-03       1.443059006350e+04 
       4.485428495698e-03       1.472481326139e+04 
       4.608276716105e-03       1.501466454860e+04 
       4.731434083940e-03       1.530011032462e+04 
       4.854879546907e-03       1.558112877375e+04 
       4.978593882394e-03       1.585772497445e+04 
       5.102559515223e-03       1.612988066613e+04 
       5.226760355354e-03       1.639760273368e+04 
       5.351181653252e-03       1.666088988152e+04 
       5.475809870918e-03       1.691975220079e+04 
       5.600632566770e-03       1.717421280492e+04 
       5.725638292789e-03       1.742427976032e+04 
       5.850816502535e-03       1.766998060235e+04 
       5.976157468785e-03       1.791134021565e+04 
       6.101652209699e-03       1.814838002402e+04 
       6.227292422568e-03       1.838112900604e+04 
       6.353070424270e-03       1.860961831807e+04 
       6.478979097718e-03       1.883387650037e+04 
       6.605011843604e-03       1.905393392799e+04 
       6.731162536897e-03       1.926983921969e+04 
       6.857425487550e-03       1.948161499771e+04 
       6.983795404977e-03       1.968929742841e+04 
       7.110267365903e-03       1.989293264476e+04 
       7.236836785222e-03       2.009255187048e+04 
       7.363499389555e-03       2.028818578842e+04 
       7.490251193232e-03       2.047988433196e+04 
       7.617088476440e-03       2.066768253180e+04 
       7.744007765339e-03       2.085161999986e+04 
       7.871005813922e-03       2.103173245987e+04 
       7.998079587469e-03       2.120806345491e+04 
       8.125226247434e-03       2.138064005322e+04 
       8.252443137612e-03       2.154952600142e+04 
       8.379727771493e-03       2.171473344770e+04 
       8.507077820655e-03       2.187632412374e+04 
       8.634491104131e-03       2.203431483064e+04 
       8.761965578639e-03       2.218875967539e+04 
       8.889499329606e-03       2.233968851337e+04 
       9.017090562912e-03       2.248714107455e+04 
       9.144737597284e-03       2.263114865628e+04 
       9.272438857296e-03       2.277178417603e+04 
       9.400192866905e-03       2.290904145301e+04 
       9.527998243495e-03       2.304298457238e+04 
       9.655853692363e-03       2.317362436945e+04 
       9.783758001638e-03       2.330104384925e+04 
       9.911710037568e-03       2.342523136176e+04 
       1.003970874017e-02       2.354624255008e+04 
       1.016775311917e-02       2.366411668408e+04 
       1.029584225031e-02       2.377887692399e+04 
       1.042397527185e-02       2.389058195789e+04 
       1.055215138134e-02       2.399925298448e+04 
       1.068036983267e-02       2.410491339337e+04 
       1.080862993327e-02       2.420761717918e+04 
       1.093693104154e-02       2.430738698766e+04 
       1.106527256448e-02       2.440426683717e+04 
       1.119365395543e-02       2.449826689208e+04 
       1.132207471204e-02       2.458944861488e+04 
       1.145053437431e-02       2.467782485357e+04 
       1.157903252282e-02       2.476343877453e+04 
       1.170756877708e-02       2.484631808838e+04 
       1.183614279396e-02       2.492650293750e+04 
       1.196475426626e-02       2.500401065743e+04 
       1.209340292136e-02       2.507888680420e+04 
       1.222208851999e-02       2.515113937955e+04 
       1.235081085508e-02       2.522083015776e+04 
       1.247956975066e-02       2.528798027484e+04 
       1.260836506088e-02       2.535260465955e+04 
       1.273719666906e-02       2.541475367257e+04 
       1.286606448688e-02       2.547445178553e+04 
       1.299496845352e-02       2.553170505983e+04 
       1.312390853499e-02       2.558656817983e+04 
       1.325288472338e-02       2.563907558987e+04 
       1.338189703628e-02       2.568923758264e+04 
       1.351094551620e-02       2.573707492947e+04 
       1.364003023001e-02       2.578263703947e+04 
       1.376915126846e-02       2.582593989201e+04 
       1.389830874576e-02       2.586701749038e+04 
       1.402750279915e-02       2.590589760392e+04 
       1.415673358853e-02       2.594260229309e+04 
       1.428600129613e-02       2.597716289587e+04 
       1.441530612622e-02       2.600961018630e+04 
       1.454464830483e-02       2.603997792875e+04 
       1.467402807952e-02       2.606827567763e+04 
       1.480344571919e-02       2.609454313366e+04 
       1.493290151387e-02       2.611878265782e+04 
       1.506239577458e-02       2.614105133484e+04 
       1.519192883321e-02       2.616133255767e+04 
       1.532150104243e-02       2.617970555588e+04 
       1.545111277558e-02       2.619615047885e+04 
       1.558076442667e-02       2.621072875216e+04 
       1.571045641028e-02       2.622342112892e+04 
       1.584018916161e-02       2.623427391917e+04 
       1.596996313646e-02       2.624331695085e+04 
       1.609977881129e-02       2.625058552208e+04 
       1.622963668323e-02       2.625608087984e+04 
       1.635953727018e-02       2.625983845168e+04 
       1.648948111091e-02       2.626188346743e+04 
       1.661946876514e-02       2.626223028181e+04 
       1.674950081370e-02       2.626090051148e+04 
       1.687957785863e-02       2.625793620110e+04 
       1.700970052339e-02       2.625335961763e+04 
       1.713986945303e-02       2.624715059365e+04 
       1.727008531435e-02       2.623937881470e+04 
       1.740034879616e-02       2.623005147294e+04 
       1.753066060950e-02       2.621918409158e+04 
       1.766102148786e-02       2.620680002392e+04 
       1.779143218749e-02       2.619293671381e+04 
       1.792189348764e-02       2.617759461848e+04 
       1.805240619089e-02       2.616082346666e+04 
       1.818297112344e-02       2.614261549451e+04 
       1.831358913544e-02       2.612299551073e+04 
       1.844426110139e-02       2.610198872533e+04 
       1.857498792041e-02       2.607965044661e+04 
       1.870577051672e-02       2.605595452291e+04 
       1.883660983998e-02       2.603094834489e+04 
       1.896750686571e-02       2.600462879466e+04 
       1.909846259575e-02       2.597701343425e+04 
       1.922947805867e-02       2.594817975586e+04 
       1.936055431028e-02       2.591807167135e+04 
       1.949169243411e-02       2.588674860157e+04 
       1.962289354189e-02       2.585420541757e+04 
       1.975415877407e-02       2.582051989243e+04 
       1.988548930042e-02       2.578566097830e+04 
       2.001688632051e-02       2.574965097538e+04 
       2.014835106437e-02       2.571251394974e+04 
       2.027988479303e-02       2.567429768478e+04 
       2.041148879917e-02       2.563496998690e+04 
       2.054316440776e-02       2.559458186120e+04 
       2.067491297674e-02       2.555316233322e+04 
       2.080673589768e-02       2.551065321607e+04 
       2.093863459647e-02       2.546721721675e+04 
       2.107061053413e-02       2.542272559363e+04 
       2.120266520747e-02       2.537730373211e+04 
       2.133480014994e-02       2.533089622611e+04 
       2.146701693241e-02       2.528355484979e+04 
       2.159931716399e-02       2.523527223026e+04 
       2.173170249287e-02       2.518610764445e+04 
       2.186417460728e-02       2.513603607095e+04 
       2.199673523629e-02       2.508507273709e+04 
       2.212938615086e-02       2.503329205593e+04 
       2.226212916470e-02       2.498066054242e+04 
       2.239496613537e-02       2.492721687327e+04 
       2.252789896523e-02       2.487295753636e+04 
       2.266092960255e-02       2.481787820713e+04 
       2.279406004260e-02       2.476204831500e+04 
       2.292729232875e-02       2.470550310752e+04 
       2.306062855366e-02       2.464817437481e+04 
       2.319407086050e-02       2.459010200689e+04 
       2.332762144412e-02       2.453134962522e+04 
       2.346128255243e-02       2.447188122253e+04 
       2.359505648761e-02       2.441178525129e+04 
       2.372894560757e-02       2.435092140982e+04 
       2.386295232728e-02       2.428948680652e+04 
       2.399707912024e-02       2.422737534034e+04 
       2.413132852001e-02       2.416467414907e+04 
       2.426570312170e-02       2.410136340661e+04 
       2.440020558359e-02       2.403738484428e+04 
       2.453483862877e-02       2.397297476344e+04 
       2.466960504685e-02       2.390790155007e+04 
       2.480450769567e-02       2.384226150177e+04 
       2.493954950317e-02       2.377608919304e+04 
       2.507473346921e-02       2.370946204889e+04 
       2.521006266753e-02       2.364228117099e+04 
       2.534554024773e-02       2.357457398106e+04 
       2.548116943734e-02       2.350646626490e+04 
       2.561695354394e-02       2.343781397451e+04 
       2.575289595739e-02       2.336864915741e+04 
       2.588900015209e-02       2.329908806250e+04 
       2.602526968933e-02       2.322915923403e+04 
       2.616170821973e-02       2.315870783825e+04 
       2.629831948579e-02       2.308793241649e+04 
       2.643510732446e-02       2.301669941790e+04 
       2.657207566986e-02       2.294512744997e+04 
       2.670922855608e-02       2.287316297263e+04 
       2.684657012006e-02       2.280083085086e+04 
       2.698410460461e-02       2.272812142406e+04 
       2.712183636150e-02       2.265510116629e+04 
       2.725976985468e-02       2.258167235546e+04 
       2.739790966361e-02       2.250807917206e+04 
       2.753626048675e-02       2.243414961570e+04 
       2.767482714511e-02       2.235984480199e+04 
       2.781361458598e-02       2.228524806407e+04 
       2.795262788679e-02       2.221042034674e+04 
       2.809187225913e-02       2.213531522518e+04 
       2.823135305289e-02       2.205996581525e+04 
       2.837107576056e-02       2.198437674801e+04 
       2.851104602175e-02       2.190853454633e+04 
       2.865126962781e-02       2.183245827460e+04 
       2.879175252671e-02       2.175610647469e+04 
       2.893250082803e-02       2.167961600951e+04 
       2.907352080821e-02       2.160290578730e+04 
       2.921481891598e-02       2.152600954536e+04 
       2.935640177804e-02       2.144893657426e+04 
       2.949827620493e-02       2.137167708997e+04 
       2.964044919717e-02       2.129425145857e+04 
       2.978292795166e-02       2.121667302163e+04 
       2.992571986830e-02       2.113898059530e+04 
       3.006883255696e-02       2.106103707540e+04 
       3.021227384468e-02       2.098305170548e+04 
       3.035605178325e-02       2.090495060724e+04 
       3.050017465701e-02       2.082660292259e+04 
       3.064465099112e-02       2.074831950596e+04 
       3.078948956008e-02       2.066984782344e+04 
       3.093469939671e-02       2.059129213587e+04 
       3.108028980148e-02       2.051260379928e+04 
       3.122627035230e-02       2.043384800393e+04 
       3.137265091471e-02       2.035504688362e+04 
       3.151944165258e-02       2.027606301686e+04 
       3.166665303928e-02       2.019719360985e+04 
       3.181429586941e-02       2.011814998271e+04 
       3.196238127104e-02       2.003906090985e+04 
       3.211092071856e-02       1.995995066835e+04 
       3.225992604614e-02       1.988073470664e+04 
       3.240940946184e-02       1.980159050971e+04 
       3.255938356245e-02       1.972229399183e+04 
       3.270986134902e-02       1.964308775176e+04 
       3.286085624317e-02       1.956375737018e+04 
       3.301238210428e-02       1.948439359985e+04 
       3.316445324750e-02       1.940513494663e+04 
       3.331708446272e-02       1.932581593510e+04 
       3.347029103450e-02       1.924647887155e+04 
       3.362408876312e-02       1.916713466786e+04 
       3.377849398665e-02       1.908781952883e+04 
       3.393352360431e-02       1.900850127671e+04 
       3.408919510104e-02       1.892910661948e+04 
       3.424552657342e-02       1.884985689362e+04 
       3.440253675710e-02       1.877061126436e+04 
       3.456024505566e-02       1.869130052094e+04 
       3.471867157123e-02       1.861207087903e+04 
       3.487783713677e-02       1.853277023899e+04 
       3.503776335032e-02       1.845367282626e+04 
       3.519847261118e-02       1.837447493171e+04 
       3.535998815832e-02       1.829534928291e+04 
       3.552233411103e-02       1.821628808310e+04 
       3.568553551212e-02       1.813714821282e+04 
       3.584961837370e-02       1.805819287877e+04 
       3.601460972594e-02       1.797921225491e+04 
       3.618053766878e-02       1.790018419783e+04 
       3.634743142701e-02       1.782125736031e+04 
       3.651532140896e-02       1.774245328504e+04 
       3.668423926895e-02       1.766359574119e+04 
       3.685421797396e-02       1.758483894285e+04 
       3.702529187475e-02       1.750602183999e+04 
       3.719749678187e-02       1.742731759550e+04 
       3.737087004687e-02       1.734872511330e+04 
       3.754545064924e-02       1.727000822564e+04 
       3.772127928952e-02       1.719146415480e+04 
       3.789839848909e-02       1.711289910755e+04 
       3.807685269726e-02       1.703439852630e+04 
       3.825668840629e-02       1.695587644478e+04 
       3.843795427503e-02       1.687742333367e+04 
       3.862070126203e-02       1.679902915926e+04 
       3.880498276884e-02       1.672059316571e+04 
       3.899085479470e-02       1.664219487778e+04 
       3.917837610342e-02       1.656388135949e+04 
       3.936760840380e-02       1.648554200092e+04 
       3.955861654495e-02       1.640726564061e+04 
       3.975146872778e-02       1.632892023547e+04 
       3.994623673452e-02       1.625062535514e+04 
       4.014299617799e-02       1.617228456249e+04 
       4.034182677268e-02       1.609398670928e+04 
       4.054281263003e-02       1.601564891924e+04 
       4.074604258039e-02       1.593728942889e+04 
       4.095161052475e-02       1.585894604973e+04 
       4.115961581933e-02       1.578056363557e+04 
       4.137016369702e-02       1.570211109444e+04 
       4.158336572966e-02       1.562364932127e+04 
       4.179934033613e-02       1.554510346399e+04 
       4.201821334172e-02       1.546654345892e+04 
       4.224011859493e-02       1.538785890504e+04 
       4.246519864886e-02       1.530911236914e+04 
       4.269360551549e-02       1.523023445639e+04 
       4.292550150210e-02       1.515128326421e+04 
       4.316106014065e-02       1.507220745493e+04 
       4.340046722280e-02       1.499299151199e+04 
       4.364392195477e-02       1.491358640758e+04 
       4.389163824905e-02       1.483405724352e+04 
       4.414384617241e-02       1.475435475592e+04 
       4.440079357305e-02       1.467440112483e+04 
       4.466274791366e-02       1.459427019748e+04 
       4.492999834190e-02       1.451387051467e+04 
       4.520285803522e-02       1.443324812021e+04 
       4.548166686401e-02       1.435228589583e+04 
       4.576679442509e-02       1.427105253761e+04 
       4.605864350763e-02       1.418946249064e+04 
       4.635765406566e-02       1.410740307673e+04 
       4.666430778634e-02       1.402502958193e+04 
       4.697913336136e-02       1.394215829337e+04 
       4.730271259147e-02       1.385884909389e+04 
       4.763568748222e-02       1.377489000196e+04 
       4.797876852369e-02       1.369043793691e+04 
       4.833274439067e-02       1.360538215865e+04 
       4.869849335444e-02       1.351954370240e+04 
       4.907699676595e-02       1.343300923314e+04 
       4.946935505751e-02       1.334554906816e+04 
       4.987680682041e-02       1.325718007190e+04 
       5.030075165639e-02       1.316779933739e+04 
       5.074277767983e-02       1.307726007598e+04 
       5.120469477576e-02       1.298547401876e+04 
       5.168857500930e-02       1.289224498538e+04 
       5.219680195021e-02       1.279748638752e+04 
       5.273213113907e-02       1.270086877666e+04 
       5.329776449351e-02       1.260219499928e+04 
       5.389744214065e-02       1.250129376150e+04 
       5.453555594646e-02       1.239760268109e+04 
       5.521728981778e-02       1.229078893176e+04 
       5.594879248027e-02       1.218037091757e+04 
       5.673738843474e-02       1.206544528812e+04 
       5.759183122693e-02       1.194532178581e+04 
       5.852259817157e-02       1.181875319670e+04 
       5.954221376572e-02       1.168412063815e+04 
       6.066556411089e-02       1.153945000580e+04 
       6.191011724857e-02       1.138191490114e+04 
