# Matter power spectrum P(k) at redshift z=0
# for k=9.87275e-06 to 0.59289 h/Mpc,
# number of wavenumbers equal to 562
#    1:k (h/Mpc)              2:P (Mpc/h)^3        
       9.872750365685e-06       6.103215305074e+01 
       2.205690710024e-05       1.325141005038e+02 
       3.427938175950e-05       2.027379997617e+02 
       4.656959099579e-05       2.724303482966e+02 
       5.895738697612e-05       3.419965855897e+02 
       7.147329564162e-05       4.117353352240e+02 
       8.414876181266e-05       4.818981517983e+02 
       9.701640408104e-05       5.527137336371e+02 
       1.101102824539e-04       6.244001536267e+02 
       1.234661817423e-04       6.971720629932e+02 
       1.371219137040e-04       7.712455179736e+02 
       1.511176409362e-04       8.468416019036e+02 
       1.654962254438e-04       9.241893780267e+02 
       1.803036046419e-04       1.003528508617e+03 
       1.955891972436e-04       1.085111589174e+03 
       2.114063409687e-04       1.169206579771e+03 
       2.278127631980e-04       1.256098920441e+03 
       2.448710844934e-04       1.346093880340e+03 
       2.626493531543e-04       1.439518702855e+03 
       2.812216065340e-04       1.536724762399e+03 
       3.006684514856e-04       1.638089620963e+03 
       3.210776518238e-04       1.744018949263e+03 
       3.425447048409e-04       1.854948008572e+03 
       3.651733814704e-04       1.971342914830e+03 
       3.890761955085e-04       2.093701103376e+03 
       4.143747563520e-04       2.222551006523e+03 
       4.411999472638e-04       2.358450572929e+03 
       4.696918579010e-04       2.501984360898e+03 
       4.999993870403e-04       2.653758745391e+03 
       5.322794212350e-04       2.814394936369e+03 
       5.666954906188e-04       2.984519502144e+03 
       6.034158082786e-04       3.164752032593e+03 
       6.426106192036e-04       3.355689955685e+03 
       6.844488232456e-04       3.557890485489e+03 
       7.290938966748e-04       3.771850196452e+03 
       7.766992181765e-04       3.997983030231e+03 
       8.274030014297e-04       4.236597693685e+03 
       8.813231349045e-04       4.487876220705e+03 
       9.385523111879e-04       4.751855266659e+03 
       9.991538709804e-04       5.028412018971e+03 
       1.063158771834e-03       5.317256630985e+03 
       1.130564009729e-03       5.617932315602e+03 
       1.201332679257e-03       5.929824008792e+03 
       1.275395678542e-03       6.252172843037e+03 
       1.352654882263e-03       6.584061616161e+03 
       1.432987455966e-03       6.924568609179e+03 
       1.516250893564e-03       7.272672118571e+03 
       1.602288337927e-03       7.627322527233e+03 
       1.690933785004e-03       7.987469205669e+03 
       1.782016856206e-03       8.352082999518e+03 
       1.875366928291e-03       8.720174100693e+03 
       1.970816513473e-03       9.090805001406e+03 
       2.068203870071e-03       9.463099275766e+03 
       2.167374888435e-03       9.836248505028e+03 
       2.268184337302e-03       1.020951445844e+04 
       2.370496575236e-03       1.058222891414e+04 
       2.474185835574e-03       1.095379331217e+04 
       2.579136186670e-03       1.132367438758e+04 
       2.685241256747e-03       1.169140077707e+04 
       2.792403797775e-03       1.205655592547e+04 
       2.900535147864e-03       1.241877615923e+04 
       3.009554637918e-03       1.277774306595e+04 
       3.119388976558e-03       1.313318011228e+04 
       3.229971637612e-03       1.348485287682e+04 
       3.341242266816e-03       1.383255272648e+04 
       3.453146118457e-03       1.417610549956e+04 
       3.565633528316e-03       1.451536205959e+04 
       3.678659426041e-03       1.485020777371e+04 
       3.792182887834e-03       1.518052886787e+04 
       3.906166728814e-03       1.550623838098e+04 
       4.020577133389e-03       1.582726811732e+04 
       4.135383321387e-03       1.614356247397e+04 
       4.250557247358e-03       1.645508135591e+04 
       4.366073330337e-03       1.676179343968e+04 
       4.481908211339e-03       1.706367293306e+04 
       4.598040535994e-03       1.736071649482e+04 
       4.714450759812e-03       1.765291273018e+04 
       4.831120973791e-03       1.794026413529e+04 
       4.948034748240e-03       1.822278468376e+04 
       5.065176992890e-03       1.850048176452e+04 
       5.182533831546e-03       1.877337354590e+04 
       5.300092489704e-03       1.904148930753e+04 
       5.417841193736e-03       1.930484534072e+04 
       5.535769080365e-03       1.956347576178e+04 
       5.653866115334e-03       1.981741288409e+04 
       5.772123020247e-03       2.006668431494e+04 
       5.890531206710e-03       2.031132779766e+04 
       6.009082716982e-03       2.055137484754e+04 
       6.127770170431e-03       2.078686528292e+04 
       6.246586715181e-03       2.101784117351e+04 
       6.365525984403e-03       2.124434548772e+04 
       6.484582056747e-03       2.146641046235e+04 
       6.603749420500e-03       2.168407924243e+04 
       6.723022941071e-03       2.189740354583e+04 
       6.842397831469e-03       2.210641039653e+04 
       6.961869625463e-03       2.231115239990e+04 
       7.081434153163e-03       2.251167827501e+04 
       7.201087518771e-03       2.270802668967e+04 
       7.320826080287e-03       2.290024227700e+04 
       7.440646430991e-03       2.308836514227e+04 
       7.560545382511e-03       2.327244345116e+04 
       7.680519949344e-03       2.345250751739e+04 
       7.800567334670e-03       2.362862816931e+04 
       7.920684917360e-03       2.380081857961e+04 
       8.040870240048e-03       2.396914711538e+04 
       8.161120998185e-03       2.413363126101e+04 
       8.281435029970e-03       2.429433269563e+04 
       8.401810307092e-03       2.445128339155e+04 
       8.522244926206e-03       2.460452723703e+04 
       8.642737101069e-03       2.475409700360e+04 
       8.763285155300e-03       2.490007436431e+04 
       8.883887515688e-03       2.504245414868e+04 
       9.004542706010e-03       2.518130066110e+04 
       9.125249341322e-03       2.531664302738e+04 
       9.246006122674e-03       2.544852503994e+04 
       9.366811832214e-03       2.557699408934e+04 
       9.487665328663e-03       2.570207478539e+04 
       9.608565543106e-03       2.582381928777e+04 
       9.729511475102e-03       2.594226459667e+04 
       9.850502189067e-03       2.605744767782e+04 
       9.971536810915e-03       2.616940589246e+04 
       1.009261452494e-02       2.627816099646e+04 
       1.021373457092e-02       2.638377716878e+04 
       1.033489624143e-02       2.648626970190e+04 
       1.045609887930e-02       2.658569432915e+04 
       1.057734187534e-02       2.668206094781e+04 
       1.069862466611e-02       2.677542969736e+04 
       1.081994673195e-02       2.686582166318e+04 
       1.094130759506e-02       2.695328060084e+04 
       1.106270681778e-02       2.703783610983e+04 
       1.118414400094e-02       2.711952896262e+04 
       1.130561878232e-02       2.719838075657e+04 
       1.142713083529e-02       2.727443833689e+04 
       1.154867986744e-02       2.734772348254e+04 
       1.167026561938e-02       2.741828896219e+04 
       1.179188786359e-02       2.748614357643e+04 
       1.191354640334e-02       2.755133335912e+04 
       1.203524107176e-02       2.761389165175e+04 
       1.215697173084e-02       2.767384405007e+04 
       1.227873827066e-02       2.773122403058e+04 
       1.240054060852e-02       2.778605675680e+04 
       1.252237868827e-02       2.783838356254e+04 
       1.264425247960e-02       2.788823386963e+04 
       1.276616197742e-02       2.793562847193e+04 
       1.288810720128e-02       2.798059609163e+04 
       1.301008819484e-02       2.802317798080e+04 
       1.313210502536e-02       2.806341163639e+04 
       1.325415778330e-02       2.810130627182e+04 
       1.337624658184e-02       2.813690307614e+04 
       1.349837155656e-02       2.817023150525e+04 
       1.362053286511e-02       2.820132393645e+04 
       1.374273068683e-02       2.823019318015e+04 
       1.386496522257e-02       2.825689070456e+04 
       1.398723669438e-02       2.828143884214e+04 
       1.410954534533e-02       2.830381994953e+04 
       1.423189143930e-02       2.832413299087e+04 
       1.435427526086e-02       2.834235421221e+04 
       1.447669711507e-02       2.835852611691e+04 
       1.459915732745e-02       2.837267960669e+04 
       1.472165624381e-02       2.838483444005e+04 
       1.484419423027e-02       2.839500856746e+04 
       1.496677167316e-02       2.840325388829e+04 
       1.508938897900e-02       2.840958245299e+04 
       1.521204657456e-02       2.841401642229e+04 
       1.533474490680e-02       2.841659071070e+04 
       1.545748444297e-02       2.841731762816e+04 
       1.558026567065e-02       2.841622684941e+04 
       1.570308909783e-02       2.841335705445e+04 
       1.582595525299e-02       2.840871176314e+04 
       1.594886468524e-02       2.840233166349e+04 
       1.607181796444e-02       2.839425284607e+04 
       1.619481568135e-02       2.838445674962e+04 
       1.631785844780e-02       2.837301062521e+04 
       1.644094689686e-02       2.835991052331e+04 
       1.656408168305e-02       2.834519019437e+04 
       1.668726348258e-02       2.832888362831e+04 
       1.681049299353e-02       2.831099767690e+04 
       1.693377093614e-02       2.829154823140e+04 
       1.705709805308e-02       2.827061583773e+04 
       1.718047510969e-02       2.824812087935e+04 
       1.730390289433e-02       2.822418730234e+04 
       1.742738221865e-02       2.819879716286e+04 
       1.755091391796e-02       2.817194343721e+04 
       1.767449885154e-02       2.814367349258e+04 
       1.779813790303e-02       2.811403743118e+04 
       1.792183198081e-02       2.808300878175e+04 
       1.804558201839e-02       2.805063276947e+04 
       1.816938897481e-02       2.801694446075e+04 
       1.829325383510e-02       2.798194712201e+04 
       1.841717761072e-02       2.794565920873e+04 
       1.854116134001e-02       2.790810281002e+04 
       1.866520608870e-02       2.786931848664e+04 
       1.878931295039e-02       2.782930151276e+04 
       1.891348304709e-02       2.778807298067e+04 
       1.903771752974e-02       2.774571796958e+04 
       1.916201757879e-02       2.770211336871e+04 
       1.928638440478e-02       2.765742139891e+04 
       1.941081924892e-02       2.761157312300e+04 
       1.953532338370e-02       2.756467292384e+04 
       1.965989811358e-02       2.751662924106e+04 
       1.978454477560e-02       2.746757387739e+04 
       1.990926474009e-02       2.741746532681e+04 
       2.003405941139e-02       2.736630139523e+04 
       2.015893022851e-02       2.731415554860e+04 
       2.028387866599e-02       2.726102488679e+04 
       2.040890623458e-02       2.720691787885e+04 
       2.053401448210e-02       2.715185467129e+04 
       2.065920499422e-02       2.709581754305e+04 
       2.078447939538e-02       2.703893727290e+04 
       2.090983934960e-02       2.698111736316e+04 
       2.103528656145e-02       2.692245796901e+04 
       2.116082277692e-02       2.686291524361e+04 
       2.128644978445e-02       2.680252431597e+04 
       2.141216941591e-02       2.674131686706e+04 
       2.153798354759e-02       2.667926128173e+04 
       2.166389410132e-02       2.661648595547e+04 
       2.178990304553e-02       2.655287503754e+04 
       2.191601239636e-02       2.648851301939e+04 
       2.204222421890e-02       2.642348038070e+04 
       2.216854062828e-02       2.635763485714e+04 
       2.229496379103e-02       2.629109971108e+04 
       2.242149592626e-02       2.622387682408e+04 
       2.254813930705e-02       2.615597315125e+04 
       2.267489626176e-02       2.608736814760e+04 
       2.280176917547e-02       2.601816974655e+04 
       2.292876049143e-02       2.594832053131e+04 
       2.305587271254e-02       2.587784882188e+04 
       2.318310840290e-02       2.580678283121e+04 
       2.331047018942e-02       2.573511768867e+04 
       2.343796076346e-02       2.566287813701e+04 
       2.356558288256e-02       2.559010661445e+04 
       2.369333937213e-02       2.551676670767e+04 
       2.382123312734e-02       2.544289571092e+04 
       2.394926711499e-02       2.536852862631e+04 
       2.407744437539e-02       2.529366774781e+04 
       2.420576802445e-02       2.521828408877e+04 
       2.433424125571e-02       2.514244318122e+04 
       2.446286734246e-02       2.506613099405e+04 
       2.459164964002e-02       2.498938917289e+04 
       2.472059158800e-02       2.491219342489e+04 
       2.484969671266e-02       2.483457624619e+04 
       2.497896862943e-02       2.475654391769e+04 
       2.510841104535e-02       2.467814937901e+04 
       2.523802776181e-02       2.459928364038e+04 
       2.536782267721e-02       2.452017869448e+04 
       2.549779978980e-02       2.444065592738e+04 
       2.562796320062e-02       2.436074051833e+04 
       2.575831711650e-02       2.428056120795e+04 
       2.588886585323e-02       2.419997928585e+04 
       2.601961383883e-02       2.411914375787e+04 
       2.615056561686e-02       2.403803466879e+04 
       2.628172584999e-02       2.395657254478e+04 
       2.641309932362e-02       2.387478775001e+04 
       2.654469094963e-02       2.379280498253e+04 
       2.667650577030e-02       2.371051302407e+04 
       2.680854896238e-02       2.362797561215e+04 
       2.694082584133e-02       2.354523406241e+04 
       2.707334186567e-02       2.346224956916e+04 
       2.720610264154e-02       2.337907588948e+04 
       2.733911392747e-02       2.329561418849e+04 
       2.747238163928e-02       2.321203517451e+04 
       2.760591185520e-02       2.312819828517e+04 
       2.773971082121e-02       2.304425587628e+04 
       2.787378495658e-02       2.296010433877e+04 
       2.800814085965e-02       2.287579287863e+04 
       2.814278531382e-02       2.279128613787e+04 
       2.827772529387e-02       2.270664034017e+04 
       2.841296797242e-02       2.262190000804e+04 
       2.854852072679e-02       2.253699568731e+04 
       2.868439114606e-02       2.245202749734e+04 
       2.882058703850e-02       2.236690290717e+04 
       2.895711643928e-02       2.228161664315e+04 
       2.909398761852e-02       2.219629210879e+04 
       2.923120908977e-02       2.211088723775e+04 
       2.936878961874e-02       2.202538364173e+04 
       2.950673823253e-02       2.193976074203e+04 
       2.964506422926e-02       2.185415999655e+04 
       2.978377718811e-02       2.176837419650e+04 
       2.992288697981e-02       2.168259381345e+04 
       3.006240377774e-02       2.159677216698e+04 
       3.020233806939e-02       2.151095044625e+04 
       3.034270066848e-02       2.142503512277e+04 
       3.048350272762e-02       2.133908031421e+04 
       3.062475575162e-02       2.125310689708e+04 
       3.076647161138e-02       2.116708006779e+04 
       3.090866255857e-02       2.108105711424e+04 
       3.105134124097e-02       2.099511148888e+04 
       3.119452071860e-02       2.090902276942e+04 
       3.133821448069e-02       2.082296916932e+04 
       3.148243646354e-02       2.073700022350e+04 
       3.162720106924e-02       2.065097687750e+04 
       3.177252318550e-02       2.056492027818e+04 
       3.191841820639e-02       2.047886758188e+04 
       3.206490205430e-02       2.039294366286e+04 
       3.221199120309e-02       2.030700035962e+04 
       3.235970270242e-02       2.022108187265e+04 
       3.250805420358e-02       2.013518584674e+04 
       3.265706398661e-02       2.004929294174e+04 
       3.280675098910e-02       1.996347751434e+04 
       3.295713483656e-02       1.987767413115e+04 
       3.310823587456e-02       1.979192052267e+04 
       3.326007520284e-02       1.970618351527e+04 
       3.341267471131e-02       1.962049165146e+04 
       3.356605711837e-02       1.953491459870e+04 
       3.372024601144e-02       1.944933127312e+04 
       3.387526589002e-02       1.936377996072e+04 
       3.403114221152e-02       1.927832219522e+04 
       3.418790143983e-02       1.919289688703e+04 
       3.434557109712e-02       1.910755673534e+04 
       3.450417981896e-02       1.902222786958e+04 
       3.466375741298e-02       1.893696978284e+04 
       3.482433492157e-02       1.885174138366e+04 
       3.498594468864e-02       1.876662932693e+04 
       3.514862043101e-02       1.868152253955e+04 
       3.531239731474e-02       1.859649653409e+04 
       3.547731203676e-02       1.851150639759e+04 
       3.564340291230e-02       1.842654331536e+04 
       3.581070996860e-02       1.834164439925e+04 
       3.597927504549e-02       1.825684144124e+04 
       3.614914190336e-02       1.817198150580e+04 
       3.632035633922e-02       1.808722899587e+04 
       3.649296631166e-02       1.800258795926e+04 
       3.666702207538e-02       1.791789014183e+04 
       3.684257632629e-02       1.783327198861e+04 
       3.701968435819e-02       1.774866267232e+04 
       3.719840423203e-02       1.766409465119e+04 
       3.737879695915e-02       1.757957861649e+04 
       3.756092669967e-02       1.749503014722e+04 
       3.774486097779e-02       1.741048057184e+04 
       3.793067091557e-02       1.732600008631e+04 
       3.811843148710e-02       1.724149848821e+04 
       3.830822179542e-02       1.715694811406e+04 
       3.850012537430e-02       1.707253801434e+04 
       3.869423051795e-02       1.698799956967e+04 
       3.889063064149e-02       1.690352705643e+04 
       3.908942467584e-02       1.681887809219e+04 
       3.929071750088e-02       1.673426749337e+04 
       3.949462042144e-02       1.664964640853e+04 
       3.970125169118e-02       1.656490273049e+04 
       3.991073709023e-02       1.648012596867e+04 
       4.012321056325e-02       1.639524069281e+04 
       4.033881492546e-02       1.631030378777e+04 
       4.055770264556e-02       1.622523856678e+04 
       4.078003671547e-02       1.614007133796e+04 
       4.100599161861e-02       1.605470257055e+04 
       4.123575441026e-02       1.596928518967e+04 
       4.146952592554e-02       1.588365784088e+04 
       4.170752213327e-02       1.579778607991e+04 
       4.194997565707e-02       1.571176119986e+04 
       4.219713748839e-02       1.562548018237e+04 
       4.244927892102e-02       1.553897958087e+04 
       4.270669374132e-02       1.545222468063e+04 
       4.296970071509e-02       1.536514609065e+04 
       4.323864641956e-02       1.527769226288e+04 
       4.351390847798e-02       1.518999291405e+04 
       4.379589926597e-02       1.510178896918e+04 
       4.408507017228e-02       1.501320190196e+04 
       4.438191651375e-02       1.492416771678e+04 
       4.468698322510e-02       1.483461477013e+04 
       4.500087147013e-02       1.474449735750e+04 
       4.532424635327e-02       1.465378064683e+04 
       4.565784595052e-02       1.456237161705e+04 
       4.600249192963e-02       1.447023269492e+04 
       4.635910209282e-02       1.437729907756e+04 
       4.672870525584e-02       1.428344667618e+04 
       4.711245897949e-02       1.418864379117e+04 
       4.751167079898e-02       1.409277180661e+04 
       4.792782376238e-02       1.399571522077e+04 
       4.836260729978e-02       1.389731294380e+04 
       4.881795471340e-02       1.379743281083e+04 
       4.929608891912e-02       1.369585683213e+04 
       4.979957849822e-02       1.359242808204e+04 
       5.033140664838e-02       1.348685217907e+04 
       5.089505626305e-02       1.337882615591e+04 
       5.149461510265e-02       1.326798232193e+04 
       5.213490578637e-02       1.315385437353e+04 
       5.282164595494e-02       1.303588350802e+04 
       5.356164403948e-02       1.291326544590e+04 
       5.436303478789e-02       1.278516169480e+04 
       5.523555439897e-02       1.265028591985e+04 
       5.619084468263e-02       1.250700250881e+04 
