# Matter power spectrum P(k) at redshift z=0
# for k=1.04451e-05 to 0.627586 h/Mpc,
# number of wavenumbers equal to 560
#    1:k (h/Mpc)              2:P (Mpc/h)^3        
       1.044514725180e-05       5.115954619483e+01 
       2.333692205145e-05       1.110853660948e+02 
       3.627407306533e-05       1.699812590705e+02 
       4.929146735734e-05       2.284738755112e+02 
       6.242454933512e-05       2.869210998439e+02 
       7.570965732726e-05       3.455919022670e+02 
       8.918435029504e-05       4.047168611986e+02 
       1.028877490312e-04       4.645088099930e+02 
       1.168608962312e-04       5.251734180390e+02 
       1.311471398557e-04       5.869156334747e+02 
       1.457925442100e-04       6.499441543763e+02 
       1.608463331040e-04       7.144749197036e+02 
       1.763613692765e-04       7.807341092852e+02 
       1.923946738935e-04       8.489608562047e+02 
       2.090079892622e-04       9.194098867494e+02 
       2.262683868150e-04       9.923540915696e+02 
       2.442489207315e-04       1.068087168774e+03 
       2.630293250652e-04       1.146926205218e+03 
       2.826967486481e-04       1.229214340345e+03 
       3.033465170298e-04       1.315323336431e+03 
       3.250829038779e-04       1.405656044149e+03 
       3.480198852294e-04       1.500648622435e+03 
       3.722818383424e-04       1.600772333249e+03 
       3.980041324166e-04       1.706534692044e+03 
       4.253335411449e-04       1.818479668623e+03 
       4.544283874838e-04       1.937186568381e+03 
       4.854583105724e-04       2.063267151596e+03 
       5.186035259815e-04       2.197360501503e+03 
       5.540534376290e-04       2.340125111811e+03 
       5.920044586963e-04       2.492227710464e+03 
       6.326569172111e-04       2.654328460885e+03 
       6.762109676162e-04       2.827062385482e+03 
       7.228615090480e-04       3.011017220024e+03 
       7.727922258185e-04       3.206708493654e+03 
       8.261690087175e-04       3.414553024563e+03 
       8.831331685859e-04       3.634842699746e+03 
       9.437949857582e-04       3.867721001541e+03 
       1.008228213239e-03       4.113164646072e+03 
       1.076466134271e-03       4.370972702187e+03 
       1.148499649651e-03       4.640765051250e+03 
       1.224277647686e-03       4.921990561386e+03 
       1.303709630494e-03       5.213944875352e+03 
       1.386670293593e-03       5.515775143296e+03 
       1.473005540927e-03       5.826547882904e+03 
       1.562539304561e-03       6.145287187426e+03 
       1.655080537042e-03       6.470962705257e+03 
       1.750429835913e-03       6.802538494179e+03 
       1.848385307442e-03       7.138997222125e+03 
       1.948747440570e-03       7.479359374136e+03 
       2.051322910691e-03       7.822697626416e+03 
       2.155927347554e-03       8.168146332810e+03 
       2.262387176789e-03       8.514907895270e+03 
       2.370540683472e-03       8.862254228019e+03 
       2.480238457113e-03       9.209526849505e+03 
       2.591343369523e-03       9.556134093105e+03 
       2.703730218535e-03       9.901548929721e+03 
       2.817285147637e-03       1.024530213769e+04 
       2.931904928401e-03       1.058698188335e+04 
       3.047496171471e-03       1.092622525309e+04 
       3.163974513931e-03       1.126271360986e+04 
       3.281263816384e-03       1.159617175333e+04 
       3.399295391798e-03       1.192635944856e+04 
       3.518007279706e-03       1.225306582759e+04 
       3.637343573175e-03       1.257611518141e+04 
       3.757253801621e-03       1.289535313808e+04 
       3.877692369557e-03       1.321064840553e+04 
       3.998618049458e-03       1.352189207451e+04 
       4.119993525689e-03       1.382899066112e+04 
       4.241784985849e-03       1.413186526749e+04 
       4.363961755542e-03       1.443045556536e+04 
       4.486495972575e-03       1.472471214595e+04 
       4.609362296689e-03       1.501459654686e+04 
       4.732537651146e-03       1.530007566889e+04 
       4.856000992748e-03       1.558112528019e+04 
       4.979733107178e-03       1.585775313625e+04 
       5.103716426828e-03       1.612994030762e+04 
       5.227934868564e-03       1.639769325569e+04 
       5.352373689162e-03       1.666101084949e+04 
       5.477019356396e-03       1.691990324567e+04 
       5.601859433967e-03       1.717439347398e+04 
       5.726882478698e-03       1.742448965479e+04 
       5.852077948591e-03       1.767021935274e+04 
       5.977436120500e-03       1.791160736256e+04 
       6.102948016336e-03       1.814867523356e+04 
       6.228605336838e-03       1.838145177202e+04 
       6.354400402069e-03       1.860996840266e+04 
       6.480326097870e-03       1.883425346380e+04 
       6.606375827647e-03       1.905433736187e+04 
       6.732543468872e-03       1.927026919542e+04 
       6.858823333817e-03       1.948207032427e+04 
       6.985210134045e-03       1.968977818807e+04 
       7.111698948278e-03       1.989343849899e+04 
       7.238285193259e-03       2.009308256261e+04 
       7.364964597335e-03       2.028874075427e+04 
       7.491733176439e-03       2.048046345941e+04 
       7.618587212254e-03       2.066828529692e+04 
       7.745523232335e-03       2.085224620990e+04 
       7.872537991979e-03       2.103238185488e+04 
       7.999628457687e-03       2.120873560654e+04 
       8.126791792053e-03       2.138133459656e+04 
       8.254025339945e-03       2.155024267052e+04 
       8.381326615856e-03       2.171547221922e+04 
       8.508693292309e-03       2.187708435213e+04 
       8.636123189225e-03       2.203509646912e+04 
       8.763614264160e-03       2.218956563688e+04 
       8.891164603329e-03       2.234051173955e+04 
       9.018772413354e-03       2.248798464305e+04 
       9.146436013668e-03       2.263201155334e+04 
       9.274153829510e-03       2.277266774772e+04 
       9.401924385467e-03       2.290994577522e+04 
       9.529746299519e-03       2.304390779630e+04 
       9.657618277534e-03       2.317456579074e+04 
       9.785539108177e-03       2.330200422490e+04 
       9.913507658210e-03       2.342621020667e+04 
       1.004152286813e-02       2.354723981600e+04 
       1.016958374816e-02       2.366513226393e+04 
       1.029768937446e-02       2.377990981831e+04 
       1.042583888571e-02       2.389163214564e+04 
       1.055403147988e-02       2.400032040347e+04 
       1.068226641125e-02       2.410599802086e+04 
       1.081054298762e-02       2.420871863975e+04 
       1.093886056777e-02       2.430850509768e+04 
       1.106721855902e-02       2.440540105060e+04 
       1.119561641506e-02       2.449941691097e+04 
       1.132405363385e-02       2.459061449015e+04 
       1.145252975571e-02       2.467900604042e+04 
       1.158104436152e-02       2.476463518906e+04 
       1.170959707108e-02       2.484752900475e+04 
       1.183818754154e-02       2.492772912145e+04 
       1.196681546597e-02       2.500525130355e+04 
       1.209548057203e-02       2.508014196641e+04 
       1.222418262070e-02       2.515242145572e+04 
       1.235292140516e-02       2.522211501495e+04 
       1.248169674969e-02       2.528927378519e+04 
       1.261050850867e-02       2.535391473202e+04 
       1.273935656569e-02       2.541607734491e+04 
       1.286824083262e-02       2.547578679932e+04 
       1.299716124890e-02       2.553306224961e+04 
       1.312611778073e-02       2.558793639944e+04 
       1.325511042045e-02       2.564044931621e+04 
       1.338413918585e-02       2.569062261582e+04 
       1.351320411965e-02       2.573846473226e+04 
       1.364230528893e-02       2.578405003105e+04 
       1.377144278466e-02       2.582736027695e+04 
       1.390061672124e-02       2.586844852377e+04 
       1.402982723613e-02       2.590733812841e+04 
       1.415907448941e-02       2.594405025200e+04 
       1.428835866352e-02       2.597862461552e+04 
       1.441767996293e-02       2.601108390113e+04 
       1.454703861388e-02       2.604146033501e+04 
       1.467643486412e-02       2.606977357900e+04 
       1.480586898273e-02       2.609604373932e+04 
       1.493534125995e-02       2.612029357040e+04 
       1.506485200699e-02       2.614257040919e+04 
       1.519440155596e-02       2.616286364032e+04 
       1.532399025969e-02       2.618124557371e+04 
       1.545361849175e-02       2.619769645962e+04 
       1.558328664633e-02       2.621227958854e+04 
       1.571299513821e-02       2.622498385336e+04 
       1.584274440279e-02       2.623585568255e+04 
       1.597253489607e-02       2.624489045151e+04 
       1.610236709471e-02       2.625216504670e+04 
       1.623224149605e-02       2.625767479717e+04 
       1.636215861819e-02       2.626143727347e+04 
       1.649211900010e-02       2.626348969696e+04 
       1.662212320171e-02       2.626384120969e+04 
       1.675217180406e-02       2.626250828154e+04 
       1.688226540941e-02       2.625955978533e+04 
       1.701240464144e-02       2.625499083642e+04 
       1.714259014539e-02       2.624878775015e+04 
       1.727282258830e-02       2.624102118181e+04 
       1.740310265919e-02       2.623169392928e+04 
       1.753343106933e-02       2.622083722551e+04 
       1.766380855245e-02       2.620846209223e+04 
       1.779423586501e-02       2.619459519166e+04 
       1.792471378650e-02       2.617926286338e+04 
       1.805524311974e-02       2.616249357882e+04 
       1.818582469117e-02       2.614429029985e+04 
       1.831645935120e-02       2.612467642566e+04 
       1.844714797454e-02       2.610367465955e+04 
       1.857789146061e-02       2.608132420595e+04 
       1.870869073385e-02       2.605764760433e+04 
       1.883954674419e-02       2.603264540559e+04 
       1.897046046742e-02       2.600632630226e+04 
       1.910143290565e-02       2.597871663207e+04 
       1.923246508772e-02       2.594987628573e+04 
       1.936355806974e-02       2.591978145376e+04 
       1.949471293549e-02       2.588846145212e+04 
       1.962593079701e-02       2.585592134890e+04 
       1.975721279505e-02       2.582223696297e+04 
       1.988856009966e-02       2.578738075409e+04 
       2.001997391074e-02       2.575137099171e+04 
       2.015145545862e-02       2.571423723394e+04 
       2.028300600465e-02       2.567602359175e+04 
       2.041462684184e-02       2.563669719966e+04 
       2.054631929549e-02       2.559630916584e+04 
       2.067808472388e-02       2.555493335663e+04 
       2.080992451891e-02       2.551241832000e+04 
       2.094184010685e-02       2.546894557965e+04 
       2.107383294905e-02       2.542446122590e+04 
       2.120590454271e-02       2.537903733787e+04 
       2.133805642165e-02       2.533263073761e+04 
       2.147029015711e-02       2.528526968211e+04 
       2.160260735860e-02       2.523701225594e+04 
       2.173500967472e-02       2.518782395505e+04 
       2.186749879409e-02       2.513777410951e+04 
       2.200007644621e-02       2.508681002708e+04 
       2.213274440245e-02       2.503502874869e+04 
       2.226550447699e-02       2.498239898644e+04 
       2.239835852779e-02       2.492895490298e+04 
       2.253130845771e-02       2.487469463400e+04 
       2.266435621546e-02       2.481960920261e+04 
       2.279750379679e-02       2.476376756377e+04 
       2.293075324556e-02       2.470723792451e+04 
       2.306410665494e-02       2.464990301045e+04 
       2.319756616858e-02       2.459186632206e+04 
       2.333113398188e-02       2.453312249661e+04 
       2.346481234328e-02       2.447361546279e+04 
       2.359860355550e-02       2.441353979880e+04 
       2.373250997701e-02       2.435266516139e+04 
       2.386653402335e-02       2.429121739737e+04 
       2.400067816863e-02       2.422910338935e+04 
       2.413494494699e-02       2.416641083093e+04 
       2.426933695416e-02       2.410308656049e+04 
       2.440385684905e-02       2.403915242003e+04 
       2.453850735540e-02       2.397469693691e+04 
       2.467329126348e-02       2.390961749312e+04 
       2.480821143181e-02       2.384397276738e+04 
       2.494327078903e-02       2.377780821418e+04 
       2.507847233570e-02       2.371117772523e+04 
       2.521381914630e-02       2.364398716317e+04 
       2.534931437118e-02       2.357627972660e+04 
       2.548496123863e-02       2.350811013488e+04 
       2.562076305703e-02       2.343952012629e+04 
       2.575672321705e-02       2.337035273877e+04 
       2.589284519390e-02       2.330075538102e+04 
       2.602913254974e-02       2.323084145808e+04 
       2.616558893606e-02       2.316042263329e+04 
       2.630221809624e-02       2.308962734934e+04 
       2.643902386817e-02       2.301841326789e+04 
       2.657601018690e-02       2.294681600403e+04 
       2.671318108749e-02       2.287486149659e+04 
       2.685054070789e-02       2.280252333026e+04 
       2.698809329191e-02       2.272984174087e+04 
       2.712584319239e-02       2.265676115606e+04 
       2.726379487434e-02       2.258342035362e+04 
       2.740195291835e-02       2.250976191777e+04 
       2.754032202401e-02       2.243578018032e+04 
       2.767890701349e-02       2.236151986360e+04 
       2.781771283529e-02       2.228687844380e+04 
       2.795674456809e-02       2.221211661016e+04 
       2.809600742474e-02       2.213699729877e+04 
       2.823550675643e-02       2.206159597611e+04 
       2.837524805702e-02       2.198602251858e+04 
       2.851523696748e-02       2.191014305444e+04 
       2.865547928061e-02       2.183413562421e+04 
       2.879598094584e-02       2.175775989791e+04 
       2.893674807424e-02       2.168127427886e+04 
       2.907778694383e-02       2.160449964401e+04 
       2.921910400494e-02       2.152763720315e+04 
       2.936070588591e-02       2.145057677899e+04 
       2.950259939899e-02       2.137322135735e+04 
       2.964479154645e-02       2.129586745840e+04 
       2.978728952698e-02       2.121828505189e+04 
       2.993010074237e-02       2.114051865607e+04 
       3.007323280440e-02       2.106264043036e+04 
       3.021669354209e-02       2.098461763055e+04 
       3.036049100926e-02       2.090653319677e+04 
       3.050463349239e-02       2.082827945664e+04 
       3.064912951878e-02       2.074989940850e+04 
       3.079398786521e-02       2.067142885792e+04 
       3.093921756681e-02       2.059289831020e+04 
       3.108482792645e-02       2.051419388645e+04 
       3.123082852451e-02       2.043538664888e+04 
       3.137722922910e-02       2.035664571182e+04 
       3.152404020672e-02       2.027763197104e+04 
       3.167127193350e-02       2.019873696155e+04 
       3.181893520687e-02       2.011970778844e+04 
       3.196704115782e-02       2.004060905177e+04 
       3.211560126377e-02       1.996145945095e+04 
       3.226462736204e-02       1.988236696981e+04 
       3.241413166395e-02       1.980312823921e+04 
       3.256412676964e-02       1.972386332800e+04 
       3.271462568366e-02       1.964456368668e+04 
       3.286564183126e-02       1.956527503193e+04 
       3.301718907557e-02       1.948594531846e+04 
       3.316928173563e-02       1.940661665358e+04 
       3.332193460537e-02       1.932736338564e+04 
       3.347516297356e-02       1.924792687399e+04 
       3.362898264481e-02       1.916862543823e+04 
       3.378340996175e-02       1.908928476598e+04 
       3.393846182830e-02       1.901000967219e+04 
       3.409415573428e-02       1.893066860189e+04 
       3.425050978138e-02       1.885130618649e+04 
       3.440754271053e-02       1.877205644526e+04 
       3.456527393084e-02       1.869278969093e+04 
       3.472372355017e-02       1.861355549670e+04 
       3.488291240749e-02       1.853423337383e+04 
       3.504286210706e-02       1.845508604757e+04 
       3.520359505470e-02       1.837592883633e+04 
       3.536513449617e-02       1.829680561878e+04 
       3.552750455786e-02       1.821770041103e+04 
       3.569073028997e-02       1.813858921109e+04 
       3.585483771239e-02       1.805961326560e+04 
       3.601985386336e-02       1.798065288502e+04 
       3.618580685130e-02       1.790160291617e+04 
       3.635272590988e-02       1.782267359358e+04 
       3.652064145672e-02       1.774388213325e+04 
       3.668958515588e-02       1.766501061812e+04 
       3.685958998454e-02       1.758617992143e+04 
       3.703069030421e-02       1.750743995335e+04 
       3.720292193668e-02       1.742871647582e+04 
       3.737632224533e-02       1.735010600791e+04 
       3.755093022211e-02       1.727143127712e+04 
       3.772678658063e-02       1.719282629840e+04 
       3.790393385608e-02       1.711424323387e+04 
       3.808241651228e-02       1.703576644391e+04 
       3.826228105682e-02       1.695723569499e+04 
       3.844357616473e-02       1.687880250165e+04 
       3.862635281165e-02       1.680036146852e+04 
       3.881066441720e-02       1.672192785044e+04 
       3.899656699972e-02       1.664352015911e+04 
       3.918411934327e-02       1.656520508720e+04 
       3.937338317814e-02       1.648686204699e+04 
       3.956442337618e-02       1.640856160992e+04 
       3.975730816252e-02       1.633025264496e+04 
       3.995210934509e-02       1.625195343598e+04 
       4.014890256409e-02       1.617358074680e+04 
       4.034776756318e-02       1.609532457761e+04 
       4.054878848490e-02       1.601695316539e+04 
       4.075205419283e-02       1.593861881793e+04 
       4.095765862347e-02       1.586028893117e+04 
       4.116570117107e-02       1.578184548881e+04 
       4.137628710924e-02       1.570339296141e+04 
       4.158952805357e-02       1.562488072400e+04 
       4.180554246995e-02       1.554632981324e+04 
       4.202445623424e-02       1.546777583124e+04 
       4.224640324944e-02       1.538908487559e+04 
       4.247152612751e-02       1.531029667454e+04 
       4.269997694404e-02       1.523147311412e+04 
       4.293191807518e-02       1.515247569912e+04 
       4.316752312764e-02       1.507340080615e+04 
       4.340697797426e-02       1.499420538256e+04 
       4.365048190965e-02       1.491481184022e+04 
       4.389824894274e-02       1.483525901964e+04 
       4.415050924565e-02       1.475551898886e+04 
       4.440751078198e-02       1.467558880637e+04 
       4.466952114109e-02       1.459544028575e+04 
       4.493682960996e-02       1.451500807587e+04 
       4.520974951966e-02       1.443439979257e+04 
       4.548862091039e-02       1.435342761055e+04 
       4.577381356714e-02       1.427218314414e+04 
       4.606573048817e-02       1.419050990207e+04 
       4.636481186049e-02       1.410851229278e+04 
       4.667153963164e-02       1.402613075246e+04 
       4.698644278517e-02       1.394324657142e+04 
       4.731010345011e-02       1.385990842804e+04 
       4.764316400239e-02       1.377601719950e+04 
       4.798633535153e-02       1.369152046074e+04 
       4.834040664910e-02       1.360642100123e+04 
       4.870625671033e-02       1.352058099575e+04 
       4.908486750936e-02       1.343402155194e+04 
       4.947734019549e-02       1.334656816316e+04 
       4.988491418856e-02       1.325817210078e+04 
       5.030899005218e-02       1.316877883999e+04 
       5.075115702271e-02       1.307823402736e+04 
       5.121322630043e-02       1.298645361248e+04 
       5.169727150004e-02       1.289320722310e+04 
       5.220567802638e-02       1.279842519421e+04 
       5.274120360446e-02       1.270178101042e+04 
       5.330705276545e-02       1.260313219646e+04 
       5.390696877850e-02       1.250213648431e+04 
       5.454534730337e-02       1.239842671945e+04 
       5.522737684378e-02       1.229161980082e+04 
       5.595921170722e-02       1.218111472350e+04 
       5.674818317190e-02       1.206621222261e+04 
       5.760305298333e-02       1.194605576914e+04 
       5.853430828655e-02       1.181940741502e+04 
       5.955448514962e-02       1.168475069207e+04 
       6.067848283798e-02       1.153999178245e+04 
       6.192378345008e-02       1.138241615979e+04 
